Ewe/V	<I>/mA	
-1.2244915E-001	-8.288664370775223E-002
-7.2449222E-002	2.576504647731781E-001
-1.3239880E-001	-2.537450591723127E-001
-8.2440779E-002	2.445410440365472E-001
-1.4244382E-001	-2.644362697998681E-001
-9.2466794E-002	2.414864102999368E-001
-1.5242009E-001	-2.772911588350935E-001
-1.0239728E-001	2.433955570062003E-001
-1.6240025E-001	-2.811094174782434E-001
-1.1248428E-001	2.403409282366433E-001
-1.7241096E-001	-2.916733572880426E-001
-1.2243394E-001	2.441592067480087E-001
-1.8240641E-001	-2.972734967867536E-001
-1.3241021E-001	2.460683534542718E-001
-1.9244383E-001	-3.115284244219465E-001
-1.4239804E-001	2.416136811176934E-001
-2.0236284E-001	-3.129284679889679E-001
-1.5243539E-001	2.533230781555176E-001
-2.1239644E-001	-3.335471947987880E-001
-1.6241553E-001	2.530685116847358E-001
-2.2238801E-001	-3.288379708925886E-001
-1.7243387E-001	2.591777692238488E-001
-2.3240246E-001	-3.364745577176409E-001
-1.8239872E-001	2.664325137933092E-001
-2.4239789E-001	-3.465293844540920E-001
-1.9243614E-001	2.671961784362793E-001
-2.5242382E-001	-3.523840904235840E-001
-2.0238572E-001	2.632506489753723E-001
-2.6243067E-001	-3.633298178513842E-001
-2.1240018E-001	2.716508557399115E-001
-2.7230778E-001	-3.838212688763933E-001
-2.2238420E-001	2.706326246261597E-001
-2.8237569E-001	-3.894214232762661E-001
-2.3239866E-001	2.814511110385260E-001
-2.9240161E-001	-4.071128368377686E-001
-2.4236733E-001	2.843784739573798E-001
-3.0238566E-001	-4.251860578854885E-001
-2.5234747E-001	2.940514435370765E-001
-3.1234664E-001	-4.444047510623932E-001
-2.6234290E-001	2.922695875167847E-001
-3.2242224E-001	-4.652780195077257E-001
-2.7239555E-001	3.014334638913470E-001
-3.3240241E-001	-4.960788091023769E-001
-2.8237188E-001	3.192521333694458E-001
-3.4235957E-001	-5.277705887953443E-001
-2.9237112E-001	3.352889120578766E-001
-3.5233206E-001	-5.766446093718214E-001
-3.0242002E-001	3.556531171003972E-001
-3.6235806E-001	-6.270460089047756E-001
-3.1233135E-001	3.788173496723175E-001
-3.7234202E-001	-7.115574081738796E-001
-3.2236496E-001	4.133092065652209E-001
-3.8236794E-001	-7.991233468055725E-001
-3.3235273E-001	4.550558030605316E-001
-3.9234048E-001	-9.213084379831962E-001
-3.4231758E-001	5.151300529638929E-001
-4.0232825E-001	-1.070603350798288E+000
-3.5232830E-001	5.889502565066014E-001
-4.1225874E-001	-1.259735703468323E+000
-3.6233896E-001	6.978986461957302E-001
-4.2229995E-001	-1.480687141418457E+000
-3.7233433E-001	8.407024939854928E-001
-4.3244812E-001	-1.751658042271934E+000
-3.8235265E-001	1.014816184838613E+000
-4.4241679E-001	-2.054320573806763E+000
-3.9235952E-001	1.240985870361328E+000
-4.5245031E-001	-2.402293682098389E+000
-4.0236261E-001	1.501265645027161E+000
-4.6241137E-001	-2.773685534795128E+000
-4.1233888E-001	1.787000576655068E+000
-4.7243351E-001	-3.159332354863487E+000
-4.2232665E-001	2.079099098841347E+000
-4.8245946E-001	-3.552233695983887E+000
-4.3242133E-001	2.358852307001747E+000
-4.9242052E-001	-3.939662138621017E+000
-4.4242057E-001	2.610604206720986E+000
-5.0241977E-001	-4.301380634307861E+000
-4.5238546E-001	2.828755696614586E+000
-5.1241517E-001	-4.655463218688965E+000
-4.6242285E-001	2.994469324747719E+000
-5.2239525E-001	-4.957744121551514E+000
-4.7238773E-001	3.127600272496537E+000
-5.3245175E-001	-5.247424602508545E+000
-4.8236778E-001	3.220893621444702E+000
-5.4242814E-001	-5.484794934590667E+000
-4.9238232E-001	3.284913301467896E+000
-5.5242735E-001	-5.680799802144364E+000
-5.0244266E-001	3.320932547251381E+000
-5.6243420E-001	-5.832258542378753E+000
-5.1241130E-001	3.332260211308792E+000
-5.7236856E-001	-5.936370213826507E+000
-5.2234948E-001	3.326914628346756E+000
-5.8241737E-001	-5.987662474314376E+000
-5.3234869E-001	3.312405268351235E+000
-5.9242034E-001	-5.985753377278655E+000
-5.4240525E-001	3.285804589589439E+000
-6.0241586E-001	-5.910278797149658E+000
-5.5240816E-001	3.252203623453774E+000
-6.1235398E-001	-5.785929679870605E+000
-5.6237310E-001	3.200911362965904E+000
-6.2236840E-001	-5.587506294250488E+000
-5.7238758E-001	3.140455087025956E+000
-6.3232946E-001	-5.345426877339676E+000
-5.8235252E-001	3.043979644775391E+000
-6.4237076E-001	-5.057655811309814E+000
-5.9238988E-001	2.931085745493569E+000
-6.5236235E-001	-4.734120051066085E+000
-6.0236621E-001	2.798973162968956E+000
-6.6234630E-001	-4.393656412760421E+000
-6.1236924E-001	2.626513878504433E+000
-6.7237979E-001	-4.038174072901406E+000
-6.2242192E-001	2.460927645365395E+000
-6.8237150E-001	-3.706492344538368E+000
-6.3239825E-001	2.272813558578491E+000
-6.9234395E-001	-3.394411245981850E+000
-6.4237833E-001	2.088390390078228E+000
-7.0240813E-001	-3.135404189427696E+000
-6.5232414E-001	1.916695038477581E+000
-7.1235770E-001	-2.898416121800743E+000
-6.6232723E-001	1.747672200202942E+000
-7.2234547E-001	-2.709792772928878E+000
-6.7240655E-001	1.593540827433269E+000
-7.3234850E-001	-2.551206827163696E+000
-6.8240196E-001	1.456337134043377E+000
-7.4234384E-001	-2.432076295216881E+000
-6.9235915E-001	1.344461441040039E+000
-7.5230110E-001	-2.337891896565758E+000
-7.0236987E-001	1.254095315933228E+000
-7.6233858E-001	-2.280617554982506E+000
-7.1234620E-001	1.174929579099018E+000
-7.7236068E-001	-2.235689163208008E+000
-7.2233009E-001	1.113455255826313E+000
-7.8234082E-001	-2.195851643880211E+000
-7.3234850E-001	1.070435901482901E+000
-7.9231715E-001	-2.171414693196617E+000
-7.4231339E-001	1.033271292845408E+000
-8.0235839E-001	-2.156014283498131E+000
-7.5234699E-001	9.994158546129857E-001
-8.1230032E-001	-2.143286744753521E+000
-7.6230425E-001	9.805789788564052E-001
-8.2231480E-001	-2.135013818740845E+000
-7.7233398E-001	9.548691709836312E-001
-8.3233696E-001	-2.112485686937969E+000
-7.8233701E-001	9.415051937103271E-001
-8.4243923E-001	-2.100394725799561E+000
-7.9235148E-001	9.262320597966518E-001
-8.5241938E-001	-2.085248668988545E+000
-8.0234307E-001	9.117225011189785E-001
-8.6241478E-001	-2.053047855695088E+000
-8.1232703E-001	8.838491042455026E-001
-8.7244838E-001	-2.029374559720356E+000
-8.2235682E-001	8.669213851292916E-001
-8.8242084E-001	-1.995646278063457E+000
-8.3240187E-001	8.516482512156163E-001
-8.9244682E-001	-1.955427169799805E+000
-8.4242016E-001	8.240293463071176E-001
-9.0237737E-001	-1.919026096661888E+000
-8.5246903E-001	8.062106569608041E-001
-9.1241854E-001	-1.883643309275310E+000
-8.6243004E-001	7.871191898981724E-001
-9.2235291E-001	-1.848896821339928E+000
-8.7243307E-001	7.695551117261239E-001
-9.3242842E-001	-1.801422913869224E+000
-8.8241321E-001	7.545365492502842E-001
-9.4240856E-001	-1.781822443008423E+000
-8.9242393E-001	7.449908057848607E-001
-9.5238107E-001	-1.757258137067161E+000
-9.0238500E-001	7.407907446225472E-001
-9.6241087E-001	-1.744276046752930E+000
-9.1243380E-001	7.317540645599365E-001
-9.7241390E-001	-1.727475643157959E+000
-9.2242545E-001	7.358269294102975E-001
-9.8244750E-001	-1.722129980723064E+000
-9.3244368E-001	7.368451555569955E-001
-9.9237037E-001	-1.723784526189167E+000
-9.4238186E-001	7.494454582532253E-001
-1.0024269E+000	-1.717420697212219E+000
-9.5238489E-001	7.625549038251229E-001
-1.0123764E+000	-1.727730075518291E+000
-9.6234971E-001	7.704460620880127E-001
-1.0223795E+000	-1.725057323773704E+000
-9.7235280E-001	7.896647453308105E-001
-1.0323825E+000	-1.732184688250225E+000
-9.8235589E-001	7.985740502675380E-001
-1.0423856E+000	-1.747712453206383E+000
-9.9235511E-001	8.184291919072475E-001
-1.0523428E+000	-1.771767616271973E+000
-1.0023735E+000	8.247930010159799E-001
-1.0623955E+000	-1.791113575299583E+000
-1.0123726E+000	8.385388453801479E-001
-1.0723832E+000	-1.804986675580345E+000
-1.0223718E+000	8.465571999549866E-001
-1.0823748E+000	-1.835151036580406E+000
-1.0323710E+000	8.647576967875157E-001
-1.0923588E+000	-1.869133909543354E+000
-1.0424199E+000	8.692123492558785E-001
-1.1023351E+000	-1.903371095657349E+000
-1.0523582E+000	8.928857048352548E-001
-1.1123725E+000	-1.950717926025391E+000
-1.0623840E+000	9.159226616223659E-001
-1.1223947E+000	-1.979355017344158E+000
-1.0723718E+000	9.287776152292881E-001