Ewe/V	<I>/mA	
-1.2250358E-001	6.690313108265400E-003
-7.2427295E-002	4.010373540222645E-002
-1.3246463E-001	8.221061827498488E-003
-8.2338765E-002	4.201287776231766E-002
-1.4249058E-001	4.975520960215363E-003
-9.2368431E-002	3.876733616925776E-002
-1.5246685E-001	3.458514765952714E-004
-1.0231808E-001	4.253789316862822E-002
-1.6243559E-001	2.970921857922804E-003
-1.1236311E-001	3.790822159498930E-002
-1.7243475E-001	4.020949163532350E-003
-1.2241581E-001	3.385129431262612E-002
-1.8245316E-001	3.935794884455390E-004
-1.3245703E-001	3.919689194299281E-002
-1.9240274E-001	-4.808833124116063E-003
-1.4242570E-001	3.537860792130232E-002
-2.0243247E-001	-7.519057253375649E-004
-1.5242875E-001	3.685819427482784E-002
-2.1243171E-001	-1.611019353731535E-003
-1.6242798E-001	3.127395431511104E-002
-2.2246534E-001	-6.622518179938197E-003
-1.7240046E-001	3.404220961965621E-002
-2.3240343E-001	-1.005897348659346E-002
-1.8248753E-001	3.070120979100466E-002
-2.4238357E-001	-5.906589860387612E-003
-1.9247909E-001	3.800367913208902E-002
-2.5243628E-001	-1.139537306153215E-002
-2.0242107E-001	3.838550858199596E-002
-2.6242402E-001	-7.911188469734043E-003
-2.1242791E-001	3.389902366325259E-002
-2.7244616E-001	-1.225448655895889E-002
-2.2247674E-001	3.700137953273952E-002
-2.8246063E-001	-8.913488796679303E-003
-2.3248740E-001	3.790822392329574E-002
-2.9239500E-001	-7.863459817599505E-003
-2.4245225E-001	3.910143626853824E-002
-3.0240563E-001	-8.913488331018016E-003
-2.5243628E-001	3.819459537044168E-002
-3.1241256E-001	-1.373407203936949E-002
-2.6242784E-001	3.786049364134669E-002
-3.2242319E-001	-1.960468490142375E-002
-2.7243468E-001	3.871960821561515E-002
-3.3241478E-001	-2.137064177077264E-002
-2.8239575E-001	3.766957949846983E-002
-3.4242922E-001	-1.707507111132145E-002
-2.9243317E-001	4.091512039303780E-002
-3.5242465E-001	-1.812509959563613E-002
-3.0239034E-001	4.000827809795737E-002
-3.6242390E-001	-1.955695543438196E-002
-3.1241247E-001	4.058102192357183E-002
-3.7239262E-001	-2.390025521162897E-002
-3.2240412E-001	3.962645027786493E-002
-3.8239950E-001	-2.638213895261288E-002
-3.3237660E-001	4.201287869364023E-002
-3.9237955E-001	-3.225275198929012E-002
-3.4240261E-001	3.881506458856165E-002
-4.0239790E-001	-3.778926469385624E-002
-3.5241327E-001	4.201287869364023E-002
-4.1237417E-001	-4.141663387417793E-002
-3.6244300E-001	5.065174447372556E-002
-4.2233524E-001	-4.738270305097103E-002
-3.7240785E-001	4.845623346045613E-002
-4.3236116E-001	-6.208309717476368E-002
-3.8237271E-001	4.855168797075748E-002
-4.4233751E-001	-7.735623419284821E-002
-3.9236048E-001	5.294271511957049E-002
-4.5234823E-001	-9.301119856536388E-002
-4.0232539E-001	5.566324247047305E-002
-4.6237037E-001	-1.250847810879350E-001
-4.1236275E-001	6.659307982772589E-002
-4.7233140E-001	-1.723837815225124E-001
-4.2240018E-001	7.485012337565422E-002
-4.8235348E-001	-2.299444079399109E-001
-4.3237263E-001	9.103010315448046E-002
-4.9232984E-001	-2.954279817640781E-001
-4.4230700E-001	1.168512487784028E-001
-5.0230998E-001	-3.797643296420574E-001
-4.5239019E-001	1.519794613122940E-001
-5.1237410E-001	-4.751259721815586E-001
-4.6237797E-001	2.109242249280214E-001
-5.2230078E-001	-5.694853141903877E-001
-4.7232756E-001	2.817056756466627E-001
-5.3247559E-001	-6.640355885028839E-001
-4.8233438E-001	3.621282801032066E-001
-5.4246730E-001	-7.495651394128799E-001
-4.9242148E-001	4.491851590573788E-001
-5.5246645E-001	-8.038325086236000E-001
-5.0235194E-001	5.335215255618095E-001
-5.6246567E-001	-8.459290936589241E-001
-5.1236641E-001	5.959027409553528E-001
-5.7240385E-001	-8.599612787365913E-001
-5.2234662E-001	6.411493942141533E-001
-5.8239537E-001	-8.300354853272438E-001
-5.3241074E-001	6.615772247314453E-001
-5.9244812E-001	-7.782500013709068E-001
-5.4246718E-001	6.506951004266739E-001
-6.0243583E-001	-7.037457227706909E-001
-5.5244732E-001	6.277376636862755E-001
-6.1243129E-001	-6.239435821771622E-001
-5.6245035E-001	5.828250944614410E-001
-6.2242281E-001	-5.439505539834499E-001
-5.7243049E-001	5.226394049823284E-001
-6.3242209E-001	-4.629074670374393E-001
-5.8241069E-001	4.582535997033119E-001
-6.4240986E-001	-4.054900109767914E-001
-5.9244812E-001	3.910040520131588E-001
-6.5235561E-001	-3.549932092428207E-001
-6.0247785E-001	3.223703950643539E-001
-6.6237015E-001	-3.219173364341259E-001
-6.1237401E-001	2.739736437797546E-001
-6.7243809E-001	-3.042577616870403E-001
-6.2241524E-001	2.314475048333406E-001
-6.8240291E-001	-2.824458181858063E-001
-6.3244879E-001	1.979420613497496E-001
-6.9240987E-001	-2.714205197989941E-001
-6.4239454E-001	1.653434615582228E-001
-7.0241278E-001	-2.710864283144474E-001
-6.5237468E-001	1.525522023439407E-001
-7.1238148E-001	-2.631634827703238E-001
-6.6235101E-001	1.361335823312402E-001
-7.2230434E-001	-2.612543385475874E-001
-6.7244184E-001	1.238673422485590E-001
-7.3239136E-001	-2.548109851777554E-001
-6.8240291E-001	1.107419943436980E-001
-7.4236393E-001	-2.538564223796129E-001
-6.9239831E-001	1.122215762734413E-001
-7.5240135E-001	-2.599656637758017E-001
-7.0234793E-001	1.097396938130260E-001
-7.6236618E-001	-2.556223738938570E-001
-7.1236241E-001	9.895304311066866E-002
-7.7235013E-001	-2.581042535603046E-001
-7.2237313E-001	9.814165625721216E-002
-7.8231502E-001	-2.530927546322346E-001
-7.3238379E-001	1.053009387105703E-001
-7.9238296E-001	-2.549541667103767E-001
-7.4233723E-001	9.795074351131916E-002
-8.0234021E-001	-2.568633165210485E-001
-7.5240898E-001	9.074373077601194E-002
-8.1237382E-001	-2.602997776120901E-001
-7.6239294E-001	9.694844391196966E-002
-8.2240736E-001	-2.570542283356190E-001
-7.7238452E-001	8.869140502065420E-002
-8.3238369E-001	-2.479380778968334E-001
-7.8233409E-001	8.463447634130716E-002
-8.4237146E-001	-2.497040294110775E-001
-7.9238683E-001	8.587541896849871E-002
-8.5239738E-001	-2.415901850908995E-001
-8.0232877E-001	8.682998828589916E-002
-8.6232412E-001	-2.428311128169298E-001
-8.1234705E-001	8.845276292413473E-002
-8.7238824E-001	-2.346218042075634E-001
-8.2238829E-001	7.709336467087269E-002
-8.8241798E-001	-2.285602800548077E-001
-8.3237988E-001	7.384782424196601E-002
-8.9232558E-001	-2.185850124806166E-001
-8.4239441E-001	6.692718109115958E-002
-9.0236300E-001	-2.079892735928297E-001
-8.5239738E-001	6.119975633919239E-002
-9.1234314E-001	-2.044096291065216E-001
-8.6236608E-001	5.876560136675835E-002
-9.2228889E-001	-1.946730110794306E-001
-8.7238061E-001	5.800194386392832E-002
-9.3243700E-001	-1.860341429710388E-001
-8.8238364E-001	5.594961298629642E-002
-9.4251645E-001	-1.740065477788448E-001
-8.9236379E-001	4.941080184653401E-002
-9.5238590E-001	-1.753429472446442E-001
-9.0239352E-001	4.669027635827661E-002
-9.6246910E-001	-1.723360493779182E-001
-9.1235077E-001	4.287199163809419E-002
-9.7241485E-001	-1.709041874855757E-001
-9.2236149E-001	4.478113260120153E-002
-9.8244458E-001	-1.655108667910099E-001
-9.3245614E-001	4.206060711294413E-002
-9.9242860E-001	-1.627903413027525E-001
-9.4246304E-001	4.587889090180397E-002
-1.0024010E+000	-1.647949405014515E-001
-9.5243931E-001	4.611753253266215E-002
-1.0124270E+000	-1.678018383681774E-001
-9.6244615E-001	4.616526048630476E-002
-1.0223384E+000	-1.675631925463676E-001
-9.7246832E-001	4.124922165647149E-002
-1.0323987E+000	-1.758679635822773E-001
-9.8242551E-001	4.559251945465803E-002
-1.0423635E+000	-1.711905635893345E-001
-9.9244761E-001	4.855168936774135E-002
-1.0523971E+000	-1.724792364984751E-001
-1.0023934E+000	4.988808743655682E-002
-1.0624117E+000	-1.741974595934153E-001
-1.0123926E+000	5.194041552022100E-002
-1.0723842E+000	-1.843159105628729E-001
-1.0224110E+000	5.026991758495569E-002
-1.0823720E+000	-1.865591537207365E-001
-1.0324103E+000	5.375410150736570E-002
-1.0924170E+000	-1.834568008780479E-001
-1.0424285E+000	5.642690043896437E-002
-1.1024163E+000	-1.861773300915957E-001
-1.0524049E+000	5.509050097316504E-002
-1.1123811E+000	-1.987299341708422E-001
-1.0624002E+000	5.886105634272099E-002
-1.1223879E+000	-2.129053138196468E-001
-1.0723728E+000	5.599734280258417E-002