Ewe/V	<I>/mA	
-1.2256584E-001	7.606701925396919E-003
-7.2550707E-002	2.112752022542830E-002
-1.3253450E-001	1.563709056615058E-002
-8.2542263E-002	2.161468099802732E-002
-1.4249945E-001	1.511043127112347E-002
-9.2522413E-002	1.492610113727378E-002
-1.5249482E-001	1.378061585449453E-002
-1.0252166E-001	2.179901337186838E-002
-1.6250172E-001	1.541326100263616E-002
-1.1255132E-001	2.074569176304442E-002
-1.7256577E-001	1.017299531718135E-002
-1.2252386E-001	1.511043141563904E-002
-1.8251155E-001	8.948510853926922E-003
-1.3248880E-001	1.787539693559037E-002
-1.9246881E-001	8.040023020243850E-003
-1.4247648E-001	2.004786840929035E-002
-2.0245282E-001	8.145354577773732E-003
-1.5252919E-001	1.642708152789493E-002
-2.1247877E-001	1.073915437305474E-002
-1.6249025E-001	1.890238380894579E-002
-2.2246645E-001	1.156864357020321E-002
-1.7254668E-001	1.565025742005171E-002
-2.3250008E-001	9.001177191686138E-003
-1.8250014E-001	1.628224959532762E-002
-2.4252601E-001	6.960369814648926E-003
-1.9248028E-001	2.132501832113184E-002
-2.5249854E-001	1.010716278989124E-002
-2.0249481E-001	1.672991142800911E-002
-2.6244044E-001	9.593669387335274E-003
-2.1245199E-001	1.761206623231028E-002
-2.7248546E-001	1.277996182184793E-002
-2.2246265E-001	1.813872447558518E-002
-2.8245419E-001	7.473863562938339E-003
-2.3246576E-001	2.087735641619254E-002
-2.9243815E-001	1.367528417854216E-002
-2.4252607E-001	2.243100344363985E-002
-3.0250609E-001	1.021249475688191E-002
-2.5247177E-001	2.050869629300872E-002
-3.1244805E-001	7.618694600061079E-003
-2.6249018E-001	1.928421167721006E-002
-3.2247785E-001	5.867550321673992E-003
-2.7250463E-001	1.946854135342713E-002
-3.3243123E-001	4.208572188558876E-003
-2.8251147E-001	1.566342402506488E-002
-3.4246099E-001	8.026856106127897E-003
-2.9245725E-001	1.805972648334914E-002
-3.5242972E-001	5.327724321777451E-003
-3.0247557E-001	1.709857213728387E-002
-3.6249384E-001	2.154598658370525E-003
-3.1245574E-001	1.640074740260325E-002
-3.7240523E-001	4.274404593412202E-003
-3.2249689E-001	1.622958330373311E-002
-3.8245025E-001	-9.526947798239524E-004
-3.3249620E-001	1.886288383333329E-002
-3.9244568E-001	4.722065522620472E-003
-3.4247246E-001	2.054819466289261E-002
-4.0244496E-001	5.959716390172037E-003
-3.5246789E-001	1.691424135311409E-002
-4.1247082E-001	4.827397345597374E-003
-3.6247474E-001	1.906038091742786E-002
-4.2241284E-001	-1.848016540391436E-003
-3.7253127E-001	1.637441444949342E-002
-4.3252274E-001	-4.573481866200713E-003
-3.8244647E-001	1.766473302168065E-002
-4.4252580E-001	-4.599814222932895E-003
-3.9242661E-001	2.073252652290047E-002
-4.5249835E-001	-1.913848939725070E-003
-4.0243727E-001	2.241783685468390E-002
-4.6248990E-001	-3.559661204204097E-003
-4.1241741E-001	2.004786911581097E-002
-4.7248146E-001	-2.545841000091028E-003
-4.2245483E-001	2.239150512192783E-002
-4.8252276E-001	-7.075116713732038E-003
-4.3251133E-001	2.461664269453490E-002
-4.9248755E-001	-9.708416246776957E-003
-4.4252580E-001	2.461664343317005E-002
-5.0249821E-001	-1.163072442507437E-002
-4.5251736E-001	2.551196470599748E-002
-5.1252800E-001	-1.114356392745636E-002
-4.6249750E-001	2.644678584203638E-002
-5.2252722E-001	-1.637066348359503E-002
-4.7258458E-001	2.584112705341696E-002
-5.3252649E-001	-2.134760013171311E-002
-4.8253796E-001	2.553829781968017E-002
-5.4249901E-001	-1.899079843584833E-002
-4.9246854E-001	3.229270785533145E-002
-5.5248672E-001	-2.305924481359023E-002
-5.0248677E-001	3.092339467899552E-002
-5.6249362E-001	-2.375706994970297E-002
-5.1247835E-001	3.089706233606256E-002
-5.7250047E-001	-2.739102342005434E-002
-5.2249676E-001	3.175288066267967E-002
-5.8247685E-001	-3.026132080061683E-002
-5.3249973E-001	3.177921551054919E-002
-5.9248745E-001	-3.066948120450153E-002
-5.4252195E-001	3.227954383554130E-002
-6.0246378E-001	-3.007698906906725E-002
-5.5247527E-001	3.249020501971245E-002
-6.1244392E-001	-3.417177029467866E-002
-5.6245160E-001	3.433351520577377E-002
-6.2248898E-001	-4.067602059964476E-002
-5.7246232E-001	3.238487558375142E-002
-6.3248438E-001	-4.020202827864683E-002
-5.8245003E-001	2.761860304223052E-002
-6.4246070E-001	-4.005719644242323E-002
-5.9243786E-001	2.842176082576142E-002
-6.5244460E-001	-4.205850190643606E-002
-6.0245228E-001	3.426768238945253E-002
-6.6236365E-001	-3.745022775798008E-002
-6.1243629E-001	3.545266845873712E-002
-6.7250419E-001	-3.622574384870200E-002
-6.2245846E-001	3.141055525890712E-002
-6.8249196E-001	-3.860888167701920E-002
-6.3248819E-001	2.880358959323370E-002
-6.9239950E-001	-4.032052661581287E-002
-6.4242631E-001	2.781610165176721E-002
-7.0244080E-001	-3.935936947577989E-002
-6.5248275E-001	2.751327209688459E-002
-7.1245521E-001	-3.751606121659279E-002
-6.6245532E-001	2.740793922466450E-002
-7.2240490E-001	-3.899071005911663E-002
-6.7246598E-001	2.535396576698484E-002
-7.3238873E-001	-4.071551978845023E-002
-6.8244988E-001	2.615712387166146E-002
-7.4241477E-001	-4.180834076270975E-002
-6.9243002E-001	2.728944091961302E-002
-7.5236058E-001	-4.267733004586460E-002
-7.0240641E-001	2.814526300363500E-002
-7.6240176E-001	-3.993869784834059E-002
-7.1243232E-001	2.919858231626704E-002
-7.7243537E-001	-4.120268133179905E-002
-7.2239721E-001	3.145005496154568E-002
-7.8244984E-001	-3.958320078150979E-002
-7.3240024E-001	2.503797103618749E-002
-7.9242998E-001	-3.633107739532826E-002
-7.4241471E-001	2.947507972090409E-002
-8.0241394E-001	-3.802955343291692E-002
-7.5238347E-001	2.976474255837236E-002
-8.1244749E-001	-3.604141230983982E-002
-7.6243997E-001	3.034407028864167E-002
-8.2244676E-001	-3.165696869636409E-002
-7.7234757E-001	2.648628557678950E-002
-8.3249557E-001	-3.643641004274634E-002
-7.8241932E-001	2.714460924396227E-002
-8.4249103E-001	-3.641007564448084E-002
-7.9244906E-001	3.658498759413586E-002
-8.5245204E-001	-2.786501734678087E-002
-8.0240631E-001	3.399118787512697E-002
-8.6253148E-001	-3.195979882930888E-002
-8.1234825E-001	2.336582506139728E-002
-8.7251925E-001	-3.243379301295198E-002
-8.2240856E-001	2.645995140332599E-002
-8.8252991E-001	-3.323695044322261E-002
-8.3248037E-001	2.606495771685546E-002
-8.9243752E-001	-2.524488371122502E-002
-8.4251016E-001	2.935658215448774E-002
-9.0248257E-001	-3.110397619933918E-002
-8.5250175E-001	2.524863466106608E-002
-9.1254288E-001	-1.816130834149904E-002
-8.6246657E-001	2.065352777597201E-002
-9.2246574E-001	-2.772018557478645E-002
-8.7248105E-001	2.031119896805492E-002
-9.3252605E-001	-2.358590541728611E-002
-8.8252228E-001	1.892871547747271E-002
-9.4242597E-001	-2.556088052946948E-002
-8.9248717E-001	1.795439505628471E-002
-9.5243663E-001	-2.423106400488784E-002
-9.0250546E-001	1.884971703563271E-002
-9.6245497E-001	-2.187426025369044E-002
-9.1247034E-001	1.657191249702511E-002
-9.7241604E-001	-2.648253469117762E-002
-9.2243904E-001	1.645341364602590E-002
-9.8252600E-001	-2.657470068541068E-002
-9.3242675E-001	1.753306750143910E-002
-9.9249846E-001	-2.574521023780108E-002
-9.4250238E-001	1.998203520759423E-002
-1.0024633E+000	-2.221658938275334E-002
-9.5244813E-001	2.112752032177201E-002
-1.0124779E+000	-1.957012334003531E-002
-9.6243209E-001	1.978453793081229E-002
-1.0224198E+000	-2.334890732991285E-002
-9.7248858E-001	2.014003462832548E-002
-1.0324610E+000	-2.446806026173051E-002
-9.8244965E-001	1.966603993084923E-002
-1.0424603E+000	-2.662736665585946E-002
-9.9245650E-001	1.873121943710179E-002
-1.0525014E+000	-2.678536431028925E-002
-1.0024786E+000	1.705907256310354E-002
-1.0624816E+000	-2.886567033570389E-002
-1.0124779E+000	1.902088208188268E-002
-1.0724006E+000	-2.754902094602585E-002
-1.0224656E+000	1.921837828282652E-002
-1.0824075E+000	-2.860234029077252E-002
-1.0324267E+000	2.248367079501520E-002
-1.0924220E+000	-3.070898039330699E-002
-1.0424259E+000	2.381348722325316E-002
-1.1024137E+000	-3.055098312425203E-002
-1.0524442E+000	1.970553921599838E-002
-1.1124510E+000	-3.242062745166238E-002
-1.0623823E+000	2.096952257099849E-002
-1.1224045E+000	-3.228896053443697E-002
-1.0724655E+000	1.667724543347441E-002