Ewe/V	<I>/mA	
-1.2193070E-001	-1.444174413336441E-004
-7.1919300E-002	6.497985050082206E-002
-1.3196427E-001	-1.825873944908381E-002
-8.1956699E-002	5.474685505032539E-002
-1.4187570E-001	-2.352797277271748E-002
-9.1921560E-002	5.390683040022848E-002
-1.5195510E-001	-2.360433861613273E-002
-1.0195897E-001	5.971062406897543E-002
-1.6204977E-001	-2.497892063111067E-002
-1.1196201E-001	5.031764507293701E-002
-1.7201462E-001	-2.543711513280869E-002
-1.2191924E-001	4.336836636066438E-002
-1.8204822E-001	-1.932785976678136E-002
-1.3194901E-001	4.848486632108689E-002
-1.9198252E-001	-2.490255422890186E-002
-1.4195970E-001	6.047428101301194E-002
-2.0201612E-001	-3.620467819273476E-002
-1.5189019E-001	5.657963156700135E-002
-2.1199243E-001	-3.154637217521666E-002
-1.6204213E-001	5.031764656305315E-002
-2.2191912E-001	-3.597557917237282E-002
-1.7198026E-001	5.627416595816603E-002
-2.3197180E-001	-3.872474730014802E-002
-1.8207495E-001	5.215042084455490E-002
-2.4206266E-001	-4.376488104462622E-002
-1.9203216E-001	5.642689988017080E-002
-2.5199699E-001	-4.032842591404917E-002
-2.0197031E-001	5.726692155003543E-002
-2.6210311E-001	-4.216120019555092E-002
-2.1201153E-001	5.146312937140463E-002
-2.7202597E-001	-4.491036683320998E-002
-2.2198021E-001	5.787784904241561E-002
-2.8194883E-001	-4.674314409494401E-002
-2.3197180E-001	4.886669516563413E-002
-2.9203969E-001	-5.376878604292867E-002
-2.4197103E-001	5.192132592201232E-002
-3.0197784E-001	-5.392151772975923E-002
-2.5200462E-001	4.924852475523950E-002
-3.1204578E-001	-6.171081736683859E-002
-2.6198474E-001	5.489958450198174E-002
-3.2193428E-001	-6.010713651776312E-002
-2.7198017E-001	5.237951800227164E-002
-3.3197930E-001	-7.469298243522648E-002
-2.8200227E-001	5.383046641945838E-002
-3.4197089E-001	-7.392932772636418E-002
-2.9199770E-001	5.650326535105704E-002
-3.5192430E-001	-7.637303173542020E-002
-3.0203128E-001	5.764874890446658E-002
-3.6193499E-001	-8.828608095645907E-002
-3.1197324E-001	6.345254033803938E-002
-3.7196860E-001	-1.021082669496536E-001
-3.2201064E-001	6.574350595474243E-002
-3.8198689E-001	-1.081411540508270E-001
-3.3194113E-001	6.948542669415475E-002
-3.9201665E-001	-1.293708220124244E-001
-3.4192508E-001	7.567104846239092E-002
-4.0197772E-001	-1.556406199932099E-001
-3.5195103E-001	7.948933243751521E-002
-4.1196549E-001	-1.887833148241043E-001
-3.6198846E-001	8.743136972188947E-002
-4.2185017E-001	-2.406356185674667E-001
-3.7194186E-001	1.025517687201500E-001
-4.3194485E-001	-3.204377591609955E-001
-3.8204417E-001	1.179012730717659E-001
-4.4192114E-001	-4.157421350479127E-001
-3.9202431E-001	1.564659476280212E-001
-4.5193946E-001	-5.451055943965919E-001
-4.0197009E-001	2.062563627958298E-001
-4.6191198E-001	-7.114300847053530E-001
-4.1192347E-001	2.836911559104918E-001
-4.7197229E-001	-9.053225874900814E-001
-4.2191890E-001	4.030507445335387E-001
-4.8198295E-001	-1.132281422615051E+000
-4.3194485E-001	5.537965714931481E-001
-4.9192873E-001	-1.381233429908752E+000
-4.4189060E-001	7.486054658889767E-001
-5.0198525E-001	-1.648360705375671E+000
-4.5191658E-001	9.648730516433695E-001
-5.1193482E-001	-1.900902009010316E+000
-4.6189672E-001	1.196490192413330E+000
-5.2196461E-001	-2.146035742759707E+000
-4.7191119E-001	1.413368678092956E+000
-5.3196764E-001	-2.378416538238525E+000
-4.8191422E-001	1.615737748146053E+000
-5.4189432E-001	-2.573607301712038E+000
-4.9195546E-001	1.788171505928039E+000
-5.5194318E-001	-2.723436689376832E+000
-5.0191653E-001	1.907836580276490E+000
-5.6193477E-001	-2.833479690551759E+000
-5.1196152E-001	2.005355429649349E+000
-5.7190722E-001	-2.879222679138184E+000
-5.2188057E-001	2.058506011962891E+000
-5.8194852E-001	-2.873342752456665E+000
-5.3200579E-001	2.074542808532716E+000
-5.9190571E-001	-2.803391742706300E+000
-5.4184467E-001	2.043309235572815E+000
-6.0201949E-001	-2.675326395034791E+000
-5.5190885E-001	1.977711153030391E+000
-6.1191177E-001	-2.497088861465453E+000
-5.6186604E-001	1.881643247604369E+000
-6.2192631E-001	-2.285326814651491E+000
-5.7197982E-001	1.735173749923703E+000
-6.3207823E-001	-2.031105351448062E+000
-5.8205539E-001	1.588627910614013E+000
-6.4192855E-001	-1.774745869636536E+000
-5.9197062E-001	1.424289059638976E+000
-6.5197736E-001	-1.539310479164124E+000
-6.0193545E-001	1.254451751708984E+000
-6.6201866E-001	-1.326402878761291E+000
-6.1199582E-001	1.085072624683380E+000
-6.7201787E-001	-1.152441954612732E+000
-6.2197590E-001	9.333340644836428E-001
-6.8194455E-001	-1.012921857833863E+000
-6.3196754E-001	7.835045456886292E-001
-6.9198954E-001	-9.081480622291567E-001
-6.4198202E-001	6.618540048599240E-001
-7.0193917E-001	-8.216257691383362E-001
-6.5198880E-001	5.662441790103911E-001
-7.1199185E-001	-7.679406642913822E-001
-6.6195375E-001	4.856020569801327E-001
-7.2204453E-001	-7.283068537712101E-001
-6.7202932E-001	4.210730552673341E-001
-7.3197883E-001	-7.027243852615355E-001
-6.8198270E-001	3.727335572242736E-001
-7.4192464E-001	-6.840147495269777E-001
-6.9192851E-001	3.340161621570585E-001
-7.5198114E-001	-6.738581538200377E-001
-7.0190096E-001	3.114118874073029E-001
-7.6195365E-001	-6.655342817306522E-001
-7.1204913E-001	2.923204839229583E-001
-7.7190703E-001	-6.562940120697025E-001
-7.2203308E-001	2.786510288715363E-001
-7.8197879E-001	-6.605705142021181E-001
-7.3193306E-001	2.671198129653929E-001
-7.9191309E-001	-6.599596142768860E-001
-7.4193609E-001	2.588723272085189E-001
-8.0195051E-001	-6.547667264938353E-001
-7.5198495E-001	2.529157966375351E-001
-8.1197649E-001	-6.463664889335634E-001
-7.6193070E-001	2.413082182407376E-001
-8.2190317E-001	-6.416318535804750E-001
-7.7200633E-001	2.409263879060743E-001
-8.3199781E-001	-6.366680383682253E-001
-7.8197879E-001	2.346644043922423E-001
-8.4202754E-001	-6.385008573532103E-001
-7.9195130E-001	2.271805673837661E-001
-8.5198861E-001	-6.220058202743530E-001
-8.0197340E-001	2.229040890932081E-001
-8.6203748E-001	-6.083363533020023E-001
-8.1193066E-001	2.154966235160827E-001
-8.7202907E-001	-5.967288017272949E-001
-8.2196802E-001	2.021326243877410E-001
-8.8201684E-001	-5.798519492149357E-001
-8.3193290E-001	1.959470063447952E-001
-8.9190537E-001	-5.684735059738157E-001
-8.4196657E-001	1.782301604747771E-001
-9.0190840E-001	-5.464801907539369E-001
-8.5195810E-001	1.713572561740875E-001
-9.1190761E-001	-5.318179726600647E-001
-8.6196494E-001	1.654770910739898E-001
-9.2192978E-001	-5.079155445098875E-001
-8.7199855E-001	1.548622667789459E-001
-9.3197483E-001	-4.888240873813627E-001
-8.8192141E-001	1.438656017184258E-001
-9.4200838E-001	-4.759183108806608E-001
-8.9201993E-001	1.353890165686608E-001
-9.5186633E-001	-4.708018004894257E-001
-9.0191984E-001	1.293561279773712E-001
-9.6194577E-001	-4.510230779647828E-001
-9.1189998E-001	1.291270256042480E-001
-9.7192204E-001	-4.481211781501768E-001
-9.2197561E-001	1.234759718179703E-001
-9.8194802E-001	-4.392627656459815E-001
-9.3196720E-001	1.227123141288757E-001
-9.9198925E-001	-4.359026730060585E-001
-9.4181365E-001	1.204977080225942E-001
-1.0019847E+000	-4.326189398765568E-001
-9.5190459E-001	1.223304882645607E-001
-1.0119610E+000	-4.411719202995301E-001
-9.6192664E-001	1.271415308117865E-001
-1.0219067E+000	-4.375827133655550E-001
-9.7191441E-001	1.216431930661201E-001
-1.0319670E+000	-4.491139292716984E-001
-9.8190606E-001	1.351599067449569E-001
-1.0419090E+000	-4.381172955036163E-001
-9.9204272E-001	1.369163274765015E-001
-1.0519731E+000	-4.501830577850345E-001
-1.0021145E+000	1.412691652774811E-001
-1.0620258E+000	-4.628597915172588E-001
-1.0119839E+000	1.347780808806419E-001
-1.0719448E+000	-4.746964514255523E-001
-1.0220137E+000	1.470729723572731E-001
-1.0820930E+000	-4.763764977455143E-001
-1.0320396E+000	1.471493229269981E-001
-1.0919892E+000	-4.841658055782325E-001
-1.0419662E+000	1.546331673860550E-001
-1.1020609E+000	-5.084501147270206E-001
-1.0519159E+000	1.630333900451659E-001
-1.1120028E+000	-5.165448904037477E-001
-1.0619762E+000	1.657825648784637E-001
-1.1219639E+000	-5.436546444892887E-001
-1.0718952E+000	1.700590342283248E-001