Ewe/V	<I>/mA	
-1.2236759E-001	-7.437341380864382E-003
-7.2344691E-002	4.236288492878282E-002
-1.3235535E-001	-3.901990382776907E-003
-8.2370631E-002	4.096284881234169E-002
-1.4231640E-001	-1.026579724081482E-002
-9.2381358E-002	3.249898552894592E-002
-1.5232706E-001	-1.522956664363545E-002
-1.0233481E-001	3.504450960705677E-002
-1.6245613E-001	-1.109309284947813E-002
-1.1234538E-001	3.338991850614548E-002
-1.7248206E-001	-1.459318740914264E-002
-1.2238288E-001	3.879915084689844E-002
-1.8243544E-001	-1.631141609201828E-002
-1.3237056E-001	3.854460145036376E-002
-1.9243468E-001	-1.847510955606897E-002
-1.4231633E-001	3.676273549596465E-002
-2.0241483E-001	-1.713870993504921E-002
-1.5230797E-001	3.122622457643348E-002
-2.1244456E-001	-1.764781617869934E-002
-1.6247141E-001	4.350837133824825E-002
-2.2239034E-001	-2.350251811246079E-002
-1.7241338E-001	3.351719646404186E-002
-2.3240875E-001	-1.796600564072529E-002
-1.8241635E-001	3.765367064625025E-002
-2.4242319E-001	-2.585712789247432E-002
-1.9243848E-001	3.689001128077507E-002
-2.5243005E-001	-2.388434593255329E-002
-2.0241103E-001	3.841732504467171E-002
-2.6239103E-001	-2.292977552860986E-002
-2.1241407E-001	3.383538406342257E-002
-2.7243611E-001	-3.489373282839855E-002
-2.2239803E-001	3.568088946243125E-002
-2.8237811E-001	-3.470281915118298E-002
-2.3243164E-001	3.364446852356195E-002
-2.9247659E-001	-3.597557979325455E-002
-2.4243081E-001	3.689001376430190E-002
-3.0233839E-001	-3.642104907582203E-002
-2.5243384E-001	4.121740038196242E-002
-3.1238344E-001	-4.208483795324969E-002
-2.6241019E-001	4.115376186867553E-002
-3.2238638E-001	-4.023933100203675E-002
-2.7236739E-001	3.682637276748818E-002
-3.3237416E-001	-4.838500420252490E-002
-2.8242776E-001	4.529023729264736E-002
-3.4239247E-001	-4.437580890953541E-002
-2.9238495E-001	3.829004863897956E-002
-3.5235354E-001	-4.851228247086203E-002
-3.0238417E-001	3.937189343074959E-002
-3.6236417E-001	-5.500336550176166E-002
-3.1234524E-001	4.089921029905480E-002
-3.7237492E-001	-5.474881082773209E-002
-3.2238638E-001	3.695364917318023E-002
-3.8235128E-001	-5.913983906308806E-002
-3.3240092E-001	4.802667535841443E-002
-3.9241150E-001	-7.167654360334075E-002
-3.4242305E-001	4.802667473753286E-002
-4.0234974E-001	-8.147680014371872E-002
-3.5237271E-001	5.127221470077825E-002
-4.1236031E-001	-9.095887591441487E-002
-3.6237186E-001	5.273589305579662E-002
-4.2234814E-001	-1.164141036570072E-001
-3.7240550E-001	5.369046268363792E-002
-4.3236268E-001	-1.482967846095562E-001
-3.8237417E-001	6.374527389804519E-002
-4.4236952E-001	-1.913797482848167E-001
-3.9236191E-001	7.227277569472768E-002
-4.5238018E-001	-2.531723305583000E-001
-4.0241843E-001	8.646407350897745E-002
-4.6233743E-001	-3.365382105112094E-001
-4.1232601E-001	1.099465178946654E-001
-4.7234806E-001	-4.451047529776893E-001
-4.2235196E-001	1.504839658737183E-001
-4.8229393E-001	-5.801447133223219E-001
-4.3233210E-001	2.096673796574273E-001
-4.9234268E-001	-7.406399647394810E-001
-4.4235423E-001	2.990152165293685E-001
-5.0236106E-001	-8.994806011517849E-001
-4.5236868E-001	4.287096212307611E-001
-5.1237172E-001	-1.091476668914159E+000
-4.6237180E-001	5.709406733512878E-001
-5.2233279E-001	-1.266226788361868E+000
-4.7231370E-001	7.328359782695770E-001
-5.3230917E-001	-1.428058385848999E+000
-4.8237780E-001	8.940312067667637E-001
-5.4231972E-001	-1.575380523999534E+000
-4.9231985E-001	1.043262461821238E+000
-5.5236101E-001	-1.686619897683462E+000
-5.0231904E-001	1.162265559037527E+000
-5.6228381E-001	-1.757830878098806E+000
-5.1234496E-001	1.254477222760517E+000
-5.7237089E-001	-1.783922473589580E+000
-5.2234042E-001	1.318942507108051E+000
-5.8238924E-001	-1.767312983671824E+000
-5.3234726E-001	1.333197494347891E+000
-5.9235412E-001	-1.695974667867027E+000
-5.4234260E-001	1.314806063969929E+000
-6.0241061E-001	-1.574044207731882E+000
-5.5227697E-001	1.264850139617920E+000
-6.1238688E-001	-1.427994807561241E+000
-5.6231058E-001	1.174674987792969E+000
-6.2239373E-001	-1.268899540106455E+000
-5.7230985E-001	1.073172360658646E+000
-6.3237774E-001	-1.089631179968515E+000
-5.8240449E-001	9.519417981306715E-001
-6.4239979E-001	-9.326996703942614E-001
-5.9238076E-001	8.256838917732239E-001
-6.5234178E-001	-8.001415630181627E-001
-6.0237235E-001	7.090353171030674E-001
-6.6237921E-001	-6.856566468874625E-001
-6.1239827E-001	5.913685063521070E-001
-6.7238605E-001	-6.028634905815125E-001
-6.2237084E-001	4.921567688385644E-001
-6.8236619E-001	-5.450801799694696E-001
-6.3243884E-001	4.044635146856290E-001
-6.9240743E-001	-5.047972997029628E-001
-6.4233875E-001	3.382799228032427E-001
-7.0237225E-001	-4.794693191846218E-001
-6.5241432E-001	2.834875235954919E-001
-7.1234852E-001	-4.540140777826309E-001
-6.6236389E-001	2.537685607870419E-001
-7.2238219E-001	-4.375318288803101E-001
-6.7235935E-001	2.265950987736383E-001
-7.3237759E-001	-4.312316427628198E-001
-6.8238908E-001	1.957306340336791E-001
-7.4233478E-001	-4.269678940375647E-001
-6.9236922E-001	1.814120635390282E-001
-7.5233024E-001	-4.205404520034790E-001
-7.0239520E-001	1.723118349909782E-001
-7.6233333E-001	-4.230859776337939E-001
-7.1240199E-001	1.654389152924218E-001
-7.7237070E-001	-4.228314359982814E-001
-7.2236305E-001	1.616842697064080E-001
-7.8235465E-001	-4.260133405526476E-001
-7.3239672E-001	1.487020949522653E-001
-7.9234624E-001	-4.325044254461927E-001
-7.4233866E-001	1.514385292927423E-001
-8.0234545E-001	-4.248042156298957E-001
-7.5235313E-001	1.466020345687866E-001
-8.1233704E-001	-4.169767101605730E-001
-7.6231802E-001	1.479384327928226E-001
-8.2235914E-001	-4.119493166605634E-001
-7.7235919E-001	1.357835705081623E-001
-8.3235461E-001	-4.152584771315260E-001
-7.8232408E-001	1.382654594878355E-001
-8.4238821E-001	-4.051400522391004E-001
-7.9230428E-001	1.393472999334335E-001
-8.5237974E-001	-4.033581614494324E-001
-8.0233783E-001	1.307561683158079E-001
-8.6233318E-001	-3.856031447649020E-001
-8.1232178E-001	1.334925927221775E-001
-8.7236291E-001	-3.817848612864814E-001
-8.2233626E-001	1.174558115502199E-001
-8.8233548E-001	-3.629479904969530E-001
-8.3235079E-001	1.109647328654924E-001
-8.9236522E-001	-3.555023272832241E-001
-8.4233093E-001	1.079737357795239E-001
-9.0226513E-001	-3.443020532528558E-001
-8.5233778E-001	1.006553582847118E-001
-9.1230637E-001	-3.403564890225734E-001
-8.6234081E-001	9.473702063163114E-002
-9.2233616E-001	-3.206923107306165E-001
-8.7235916E-001	8.385490998625711E-002
-9.3237358E-001	-3.103193144003553E-001
-8.8230485E-001	8.207304154833162E-002
-9.4233841E-001	-3.007735957702002E-001
-8.9230412E-001	7.870022331674897E-002
-9.5235294E-001	-2.900824248790741E-001
-9.0235680E-001	7.666380765537423E-002
-9.6229875E-001	-2.846731841564178E-001
-9.1232926E-001	6.368163414299488E-002
-9.7227120E-001	-2.773548116286597E-001
-9.2231709E-001	6.788175304730726E-002
-9.8231620E-001	-2.788821210463843E-001
-9.3237358E-001	6.355435959994771E-002
-9.9244148E-001	-2.745547095934553E-001
-9.4236130E-001	6.259979431827867E-002
-1.0024521E+000	-2.772274961074195E-001
-9.5230716E-001	6.807266362011433E-002
-1.0123712E+000	-2.675545439124107E-001
-9.6228343E-001	6.839085308214027E-002
-1.0224544E+000	-2.748092760642371E-001
-9.7232467E-001	7.227277507384611E-002
-1.0323582E+000	-2.763365904490156E-001
-9.8230863E-001	7.227277755737305E-002
-1.0424185E+000	-2.806639621655145E-001
-9.9240708E-001	7.220914090673125E-002
-1.0524139E+000	-2.785639117161431E-001
-1.0023948E+000	7.055455570419633E-002
-1.0623788E+000	-2.867095867792768E-001
-1.0123559E+000	7.500921313961351E-002
-1.0723283E+000	-2.986099223295851E-001
-1.0223627E+000	7.742746298511827E-002
-1.0823886E+000	-3.021099865436554E-001
-1.0323887E+000	7.870022704203916E-002
-1.0923841E+000	-3.059919277826948E-001
-1.0424185E+000	7.997298116485274E-002
-1.1023756E+000	-3.159830818573632E-001
-1.0524024E+000	8.760955681403471E-002
-1.1124092E+000	-3.284561435381574E-001
-1.0623482E+000	9.053690979878093E-002
-1.1223741E+000	-3.338654041290283E-001
-1.0724124E+000	9.454610447088885E-002