Ewe/V	<I>/mA	
-1.2247039E-001	1.108133979141712E-002
-7.2485752E-002	3.067469483034468E-002
-1.3246582E-001	9.758981901945340E-003
-8.2496479E-002	2.545637316587895E-002
-1.4245358E-001	1.699250858897960E-002
-9.2480354E-002	2.371693226612277E-002
-1.5241845E-001	1.512579255116482E-002
-1.0249876E-001	2.490484455807340E-002
-1.6244827E-001	1.448941300623119E-002
-1.1247503E-001	2.692004893389013E-002
-1.7245512E-001	1.251663190002242E-002
-1.2242081E-001	2.632609252921408E-002
-1.8243906E-001	1.096810506553285E-002
-1.3244674E-001	2.526545855734083E-002
-1.9243830E-001	1.748040137398574E-002
-1.4243831E-001	2.757764204094806E-002
-2.0245275E-001	1.622885334978086E-002
-1.5246044E-001	3.092924639996553E-002
-2.1242911E-001	1.154084807624003E-002
-1.6243678E-001	2.193506631172366E-002
-2.2244357E-001	3.310324620947035E-003
-1.7247041E-001	2.526545855734083E-002
-2.3246957E-001	1.283482270729211E-002
-1.8243906E-001	2.229568196667565E-002
-2.4241906E-001	1.332271399183406E-002
-1.9248028E-001	2.785340634485078E-002
-2.5242218E-001	1.226207963190970E-002
-2.0241077E-001	2.991103712055418E-002
-2.6245192E-001	8.825623669205612E-003
-2.1243671E-001	2.730187721964383E-002
-2.7238622E-001	9.122601781402610E-003
-2.2243975E-001	2.127747191116208E-002
-2.8242370E-001	7.977115607193080E-003
-2.3238173E-001	2.490484352327055E-002
-2.9239610E-001	9.143814379866749E-003
-2.4241915E-001	2.197749152158697E-002
-3.0239540E-001	1.173176245194756E-002
-2.5240690E-001	2.906252909451723E-002
-3.1239459E-001	1.249541960553160E-002
-2.6239467E-001	2.948678471148014E-002
-3.2243201E-001	9.695343479203672E-003
-2.7242446E-001	2.974133555673891E-002
-3.3242735E-001	1.067112775571230E-002
-2.8242743E-001	2.467150391182965E-002
-3.4238851E-001	2.716368984288743E-003
-2.9237708E-001	2.872312710516983E-002
-3.5235336E-001	2.186051757437073E-003
-3.0241832E-001	3.122622323118978E-002
-3.6242518E-001	9.674131986685097E-003
-3.1243286E-001	2.827766040960944E-002
-3.7234798E-001	7.764989351320140E-003
-3.2241291E-001	2.666549622598619E-002
-3.8239679E-001	8.655921543120511E-003
-3.3238927E-001	2.679277273515857E-002
-3.9234257E-001	-1.462531049684104E-003
-3.4238470E-001	2.541394655903179E-002
-4.0237999E-001	-7.412994762287579E-004
-3.5234949E-001	3.207473022242385E-002
-4.1235626E-001	3.331536559724346E-003
-3.6239070E-001	3.086560985280408E-002
-4.2232880E-001	2.716368950334273E-003
-3.7238613E-001	3.398387247903478E-002
-4.3245408E-001	-9.958521639216798E-004
-3.8240829E-001	3.334749138189687E-002
-4.4245324E-001	-9.417290074957743E-003
-3.9238843E-001	3.105652270217735E-002
-4.5246777E-001	-7.296021017585495E-003
-4.0237239E-001	3.184139138708508E-002
-4.6241355E-001	-1.382953038490896E-002
-4.1236013E-001	3.084439504891623E-002
-4.7247764E-001	-2.104184517843860E-002
-4.2235559E-001	3.092924671040641E-002
-4.8242724E-001	-2.095699561242431E-002
-4.3245408E-001	3.067469545122647E-002
-4.9242267E-001	-3.031179164018896E-002
-4.4249141E-001	3.703850083467031E-002
-5.0242192E-001	-3.415129126773941E-002
-4.5244098E-001	3.523542121466661E-002
-5.1240575E-001	-3.525435024251544E-002
-4.6248221E-001	3.797185762474933E-002
-5.2246237E-001	-4.505461412999365E-002
-4.7240889E-001	4.100527469482684E-002
-5.3241956E-001	-4.363336289922404E-002
-4.8245779E-001	4.164165237711535E-002
-5.4241496E-001	-5.417606731255853E-002
-4.9243796E-001	4.567206340531504E-002
-5.5244851E-001	-5.926711298525356E-002
-5.0243330E-001	4.749635544915992E-002
-5.6237906E-001	-7.057347914410962E-002
-5.1244402E-001	5.101766292419696E-002
-5.7242030E-001	-7.451904523703787E-002
-5.2243179E-001	4.804788529872894E-002
-5.8240420E-001	-7.201594590312910E-002
-5.3246540E-001	4.972368582255304E-002
-5.9241873E-001	-7.765851832098430E-002
-5.4242259E-001	5.873908226688696E-002
-6.0241026E-001	-7.795549266868168E-002
-5.5245620E-001	5.576930464141894E-002
-6.1241329E-001	-6.955527265866612E-002
-5.6238669E-001	5.405107595854336E-002
-6.2242407E-001	-7.615241532524430E-002
-5.7240123E-001	4.999945333434476E-002
-6.3241178E-001	-7.634333065814447E-002
-5.8239275E-001	5.055098359783483E-002
-6.4241874E-001	-7.316143210563397E-002
-5.9240729E-001	5.691479022304213E-002
-6.5239877E-001	-7.634333272775029E-002
-6.0240656E-001	4.974490176472390E-002
-6.6236746E-001	-7.076439447701000E-002
-6.1239052E-001	4.573570295340479E-002
-6.7242014E-001	-7.914340992768620E-002
-6.2241644E-001	4.690240013102687E-002
-6.8242323E-001	-7.443419016069835E-002
-6.3238889E-001	4.075072022775805E-002
-6.9239199E-001	-7.564331011639702E-002
-6.4241105E-001	3.928704497714836E-002
-7.0236444E-001	-7.473116947544944E-002
-6.5238357E-001	3.313536486691898E-002
-7.1237123E-001	-7.598271676235746E-002
-6.6240185E-001	4.280835369394885E-002
-7.2236663E-001	-8.130710282259535E-002
-6.7240870E-001	3.366568436225248E-002
-7.3232770E-001	-7.905855650703120E-002
-6.8240410E-001	4.075072002079752E-002
-7.4234992E-001	-7.367053172654581E-002
-6.9234222E-001	3.313536497039926E-002
-7.5236821E-001	-7.763730982939410E-002
-7.0237201E-001	3.737790251357687E-002
-7.6235598E-001	-7.275838487678105E-002
-7.1240187E-001	3.964766373650885E-002
-7.7233225E-001	-8.132831296987009E-002
-7.2235131E-001	3.729305136948824E-002
-7.8239256E-001	-7.801913676990413E-002
-7.3233539E-001	3.901128036280471E-002
-7.9234219E-001	-7.666152467330312E-002
-7.4236512E-001	3.366568394833142E-002
-8.0229944E-001	-7.914340785808038E-002
-7.5234145E-001	3.256262176566654E-002
-8.1232154E-001	-7.409478310081696E-002
-7.6231778E-001	3.606271754122443E-002
-8.2240480E-001	-8.109497568673563E-002
-7.7236664E-001	3.090803428656524E-002
-8.3243454E-001	-8.374656281537485E-002
-7.8241169E-001	3.222322112156285E-002
-8.4243375E-001	-7.500693243410853E-002
-7.9238415E-001	2.808674683587409E-002
-8.5247117E-001	-7.398872532778333E-002
-8.0231470E-001	3.158683805829943E-002
-8.6247420E-001	-7.120985786120104E-002
-8.1232536E-001	2.745036698049969E-002
-8.7249255E-001	-7.337355799973033E-002
-8.2233220E-001	2.278357436363065E-002
-8.8243830E-001	-7.475238210625118E-002
-8.3248800E-001	2.358965513606864E-002
-8.9241076E-001	-6.847342207200002E-002
-8.4248340E-001	2.098049451079634E-002
-9.0247113E-001	-6.664913458128785E-002
-8.5244447E-001	2.083200635388494E-002
-9.1241306E-001	-6.232174258265233E-002
-8.6243218E-001	1.994107358364594E-002
-9.2241997E-001	-5.920347840421747E-002
-8.7247342E-001	2.095928244913617E-002
-9.3240768E-001	-5.890650136603259E-002
-8.8247645E-001	1.898650209315944E-002
-9.4239163E-001	-5.481244934101903E-002
-8.9243370E-001	1.930469196910656E-002
-9.5239466E-001	-5.158812221553591E-002
-9.0241385E-001	1.989864863248331E-002
-9.6243590E-001	-4.600918603440129E-002
-9.1235197E-001	2.002592322727043E-002
-9.7242749E-001	-5.493972491886881E-002
-9.2238939E-001	1.843497224359048E-002
-9.8241907E-001	-5.146084415415925E-002
-9.3243062E-001	1.830769702792168E-002
-9.9243742E-001	-5.201237503853118E-002
-9.4239926E-001	1.618642675586868E-002
-1.0024214E+000	-4.982746640841174E-002
-9.5243669E-001	2.269872334889239E-002
-1.0124167E+000	-4.961534092823672E-002
-9.6243972E-001	1.026808639289810E-002
-1.0224122E+000	-5.655188961989355E-002
-9.7240841E-001	1.361969109469404E-002
-1.0323427E+000	-5.680644367304133E-002
-9.8240000E-001	1.673795723925448E-002
-1.0423687E+000	-5.260632973578241E-002
-9.9239540E-001	1.697129704472089E-002
-1.0523831E+000	-5.610642561482058E-002
-1.0024481E+000	1.718342265424627E-002
-1.0623212E+000	-5.154569529824787E-002
-1.0124054E+000	1.561368404266733E-002
-1.0723931E+000	-5.941560409135294E-002
-1.0223740E+000	1.828648222403390E-002
-1.0823579E+000	-5.551246802012133E-002
-1.0323924E+000	1.820163418435388E-002
-1.0923953E+000	-6.219446617696023E-002
-1.0424182E+000	2.411997271701688E-002
-1.1023945E+000	-6.686126006146287E-002
-1.0524213E+000	1.958045761825308E-002
-1.1123670E+000	-6.641579647031115E-002
-1.0624014E+000	1.665310588820526E-002
-1.1223739E+000	-6.728551495406362E-002
-1.0723853E+000	2.093806883527173E-002