Ewe/V	<I>/mA	
-1.2239073E-001	-8.048267103731632E-003
-7.2394609E-002	2.067387662827969E-002
-1.3239758E-001	1.929571227678520E-003
-8.2393847E-002	1.800107541070742E-002
-1.4236245E-001	-1.020921177273109E-003
-9.2351109E-002	2.379792547700080E-002
-1.5233871E-001	-3.381315891271122E-003
-1.0239613E-001	1.789694084701213E-002
-1.6241051E-001	3.456884850906630E-003
-1.1237628E-001	2.004906670613721E-002
-1.7237918E-001	-4.308225814549423E-004
-1.2244040E-001	1.761924847960472E-002
-1.8234023E-001	-3.416027048264034E-003
-1.3239758E-001	2.497812411324546E-002
-1.9233187E-001	-1.819289602281060E-003
-1.4235485E-001	2.168051483617586E-002
-2.0241128E-001	-5.845844311724333E-003
-1.5239978E-001	2.209705359895120E-002
-2.1246772E-001	-3.242468466685916E-003
-1.6241439E-001	1.730684402652763E-002
-2.2250520E-001	-5.151610700440040E-003
-1.7237538E-001	2.553350935605436E-002
-2.3245470E-001	-2.444100112453189E-003
-1.8237841E-001	2.490869977257471E-002
-2.4248073E-001	-1.333326704546133E-003
-1.9239295E-001	1.532827715643428E-002
-2.5246841E-001	-4.144972211427310E-003
-2.0245326E-001	1.567539437250659E-002
-2.6249442E-001	-9.282300015911460E-003
-2.1241425E-001	2.119455147873273E-002
-2.7247068E-001	-9.004606823013586E-003
-2.2246315E-001	1.723742049018084E-002
-2.8243941E-001	-8.240950336171823E-003
-2.3250437E-001	1.907713956792245E-002
-2.9245767E-001	-1.289231584153394E-002
-2.4243486E-001	1.678616866808041E-002
-3.0245697E-001	-1.240635062673723E-002
-2.5245318E-001	1.619606956162234E-002
-3.1245995E-001	-1.476674569262701E-002
-2.6244101E-001	1.459933226843446E-002
-3.2244778E-001	-1.851560708812691E-002
-2.7240580E-001	2.001435335048221E-002
-3.3242786E-001	-1.205923420969736E-002
-2.8247380E-001	1.591837465424428E-002
-3.4238133E-001	-2.091071399098093E-002
-2.9244247E-001	1.515471969138493E-002
-3.5241488E-001	-1.490559295581823E-002
-3.0245319E-001	2.157637993381781E-002
-3.6239120E-001	-2.080657764930621E-002
-3.1244475E-001	1.786223020065913E-002
-3.7243626E-001	-2.080657773397188E-002
-3.2244393E-001	2.091685818000272E-002
-3.8242787E-001	-2.101484673436392E-002
-3.3245084E-001	2.549879964102397E-002
-3.9242324E-001	-2.479842068119487E-002
-3.4246150E-001	2.202763069759717E-002
-4.0238050E-001	-2.285456606610259E-002
-3.5241106E-001	2.352023310959339E-002
-4.1242170E-001	-3.177547065371816E-002
-3.6240271E-001	2.921294725754042E-002
-4.2242476E-001	-2.778362635184417E-002
-3.7240568E-001	2.910881438715890E-002
-4.3238962E-001	-2.493726716122846E-002
-3.8238969E-001	3.112208910963743E-002
-4.4238505E-001	-3.351105275479227E-002
-3.9240801E-001	3.393373367461294E-002
-4.5238042E-001	-3.899549980732525E-002
-4.0240338E-001	3.223286179656332E-002
-4.6239495E-001	-4.531302370808343E-002
-4.1242170E-001	3.362133218483487E-002
-4.7236741E-001	-6.607060947201471E-002
-4.2241707E-001	3.056670318950305E-002
-4.8238575E-001	-6.791032071818004E-002
-4.3240103E-001	4.438195072791795E-002
-4.9238119E-001	-8.648106726733129E-002
-4.4235069E-001	4.045952958139509E-002
-5.0244522E-001	-1.191794702952558E-001
-4.5236519E-001	4.448608579960733E-002
-5.1240247E-001	-1.467405462806877E-001
-4.6236056E-001	5.896085399118334E-002
-5.2238643E-001	-1.737462187355217E-001
-4.7236741E-001	7.190830497579137E-002
-5.3236276E-001	-2.050908654928207E-001
-4.8241243E-001	8.763269809159357E-002
-5.4238874E-001	-2.304303889924837E-001
-4.9234292E-001	1.128680814396252E-001
-5.5234212E-001	-2.544161690907045E-001
-5.0234604E-001	1.291825717145745E-001
-5.6234139E-001	-2.685785293579102E-001
-5.1236814E-001	1.554940234531057E-001
-5.7239026E-001	-2.697587324814363E-001
-5.2236736E-001	1.762863058935511E-001
-5.8238560E-001	-2.642048665068368E-001
-5.3236276E-001	1.901709735393524E-001
-5.9238094E-001	-2.410868758505043E-001
-5.4234290E-001	1.883659782734783E-001
-6.0241836E-001	-2.278964451768180E-001
-5.5237645E-001	1.844088502905583E-001
-6.1244428E-001	-2.096380930055273E-001
-5.6231081E-001	1.808682544664904E-001
-6.2239778E-001	-1.989469054070385E-001
-5.7235587E-001	1.568824919787319E-001
-6.3249248E-001	-1.869019540873440E-001
-5.8231688E-001	1.464689821004868E-001
-6.4244968E-001	-1.711428436365994E-001
-5.9231228E-001	1.245659163052386E-001
-6.5243745E-001	-1.695461178367790E-001
-6.0234201E-001	1.070365228436210E-001
-6.6238326E-001	-1.638533920049667E-001
-6.1241764E-001	9.533868662335654E-002
-6.7240530E-001	-1.600698232650757E-001
-6.2246650E-001	8.454335413195868E-002
-6.8241221E-001	-1.553837480870159E-001
-6.3244671E-001	7.662909477949142E-002
-6.9241148E-001	-1.485455523837698E-001
-6.4246875E-001	6.909666210412979E-002
-7.0240307E-001	-1.471223695711656E-001
-6.5243363E-001	6.316096234050661E-002
-7.1242893E-001	-1.522596898404034E-001
-6.6241384E-001	6.507010588591744E-002
-7.2235566E-001	-1.458380411971700E-001
-6.7242825E-001	6.510482017289509E-002
-7.3240834E-001	-1.535093147646296E-001
-6.8242753E-001	5.819719725034456E-002
-7.4243051E-001	-1.563903851942583E-001
-6.9241530E-001	5.542026290839364E-002
-7.5239539E-001	-1.473306403918699E-001
-7.0238781E-001	5.288630859418353E-002
-7.6240224E-001	-1.583689573136242E-001
-7.1242136E-001	5.212265219200740E-002
-7.7239764E-001	-1.511836336417631E-001
-7.2240531E-001	5.101187764243642E-002
-7.8244269E-001	-1.548977900635111E-001
-7.3239315E-001	4.795725203373213E-002
-7.9231215E-001	-1.553143222223627E-001
-7.4240381E-001	5.840546502308408E-002
-8.0239916E-001	-1.511489288373427E-001
-7.5237244E-001	5.104658955877484E-002
-8.1232965E-001	-1.554878814653917E-001
-7.6239461E-001	5.472602830691753E-002
-8.2239759E-001	-1.572928862138228E-001
-7.7242059E-001	4.774898087436497E-002
-8.3239686E-001	-1.497257378968326E-001
-7.8238922E-001	4.583983800627967E-002
-8.4236550E-001	-1.428528400984677E-001
-7.9239225E-001	5.535083738240321E-002
-8.5236090E-001	-1.361187750642952E-001
-8.0238003E-001	5.170611122792412E-002
-8.6235631E-001	-1.403188908641990E-001
-8.1235635E-001	5.469131571325392E-002
-8.7240136E-001	-1.290375901894136E-001
-8.2239759E-001	5.066475983370433E-002
-8.8236237E-001	-1.249416003173047E-001
-8.3247316E-001	4.233396053314209E-002
-8.9238834E-001	-1.184158135544171E-001
-8.4239602E-001	4.292405701496382E-002
-9.0239519E-001	-1.149793524633755E-001
-8.5242581E-001	4.462492940100760E-002
-9.1235244E-001	-1.153264743360607E-001
-8.6234868E-001	3.032372011379758E-002
-9.2233640E-001	-1.114387613805858E-001
-8.7237465E-001	2.841457893902605E-002
-9.3240052E-001	-1.129660728302868E-001
-8.8240820E-001	3.001131811602548E-002
-9.4238448E-001	-1.060931635173885E-001
-8.9237309E-001	2.910881354050199E-002
-9.5233411E-001	-1.051212400197983E-001
-9.0234554E-001	3.101795640858734E-002
-9.6236002E-001	-1.026567125862297E-001
-9.1235626E-001	2.553350901739160E-002
-9.7227907E-001	-1.031426767056640E-001
-9.2237455E-001	2.792861431159754E-002
-9.8234320E-001	-1.043228703466328E-001
-9.3234706E-001	2.778976783156395E-002
-9.9230808E-001	-9.842188994992873E-002
-9.4235778E-001	2.220118994062598E-002
-1.0023645E+000	-9.942852502519450E-002
-9.5232642E-001	2.535995197567070E-002
-1.0123523E+000	-9.602678363973438E-002
-9.6233332E-001	2.473514188419690E-002
-1.0224203E+000	-9.828304025259893E-002
-9.7232491E-001	2.893525438213884E-002
-1.0324118E+000	-1.035245013507931E-001
-9.8235846E-001	2.744265307079663E-002
-1.0423958E+000	-9.887313436378142E-002
-9.9230808E-001	2.761621095917444E-002
-1.0524294E+000	-1.009905480525710E-001
-1.0023111E+000	3.219815258952702E-002
-1.0624516E+000	-9.887313504110695E-002
-1.0124592E+000	2.827573262832372E-002
-1.0724202E+000	-1.051559529521249E-001
-1.0223820E+000	2.910881184718828E-002
-1.0824310E+000	-9.443004700270574E-002
-1.0324615E+000	3.087910908189684E-002
-1.0924034E+000	-1.127925203605131E-001
-1.0424302E+000	2.952535264194012E-002
-1.1023911E+000	-1.123759787191043E-001
-1.0524180E+000	3.584287620403548E-002
-1.1123790E+000	-1.150140667503532E-001
-1.0624210E+000	3.580816513435409E-002
-1.1223667E+000	-1.239696774970400E-001
-1.0723974E+000	3.455854545940051E-002