Ewe/V	<I>/mA	
-1.2261145E-001	1.585419476032257E-002
-7.2703093E-002	2.724192787528679E-002
-1.3264118E-001	2.304181456565857E-002
-8.2645066E-002	2.769016091833296E-002
-1.4265192E-001	2.300861251095065E-002
-9.2636697E-002	2.978191739353148E-002
-1.5263586E-001	2.505056383898076E-002
-1.0266256E-001	2.841231579203968E-002
-1.6261601E-001	2.379717094742731E-002
-1.1261989E-001	3.198158113366878E-002
-1.7263046E-001	2.473514105962665E-002
-1.2264583E-001	2.731663450274768E-002
-1.8259914E-001	2.369756342681195E-002
-1.3264500E-001	2.300861291587353E-002
-1.9263275E-001	2.089195516284393E-002
-1.4263283E-001	2.581422215165651E-002
-2.0261289E-001	2.070104122242848E-002
-1.5262826E-001	2.719212440854824E-002
-2.1260446E-001	2.016980137230584E-002
-1.6263890E-001	2.850362269774727E-002
-2.2264569E-001	1.941444577001358E-002
-1.7263427E-001	2.573121486879559E-002
-2.3261435E-001	1.888320588952173E-002
-1.8259534E-001	2.644506973497890E-002
-2.4256013E-001	1.811954742499991E-002
-1.9264424E-001	2.560670607034921E-002
-2.5255167E-001	1.845987320310719E-002
-2.0260903E-001	2.444461984154966E-002
-2.6259297E-001	2.037731770162834E-002
-2.1259686E-001	2.642846739162563E-002
-2.7269140E-001	2.004529213856743E-002
-2.2261898E-001	2.663598339194834E-002
-2.8271353E-001	1.672504514293827E-002
-2.3255707E-001	2.396318288115054E-002
-2.9264790E-001	1.823575652973808E-002
-2.4262120E-001	2.360625682479656E-002
-3.0265093E-001	2.027770840441401E-002
-2.5260901E-001	2.734983655745565E-002
-3.1262341E-001	1.509812439832348E-002
-2.6260057E-001	2.319122721319611E-002
-3.2266083E-001	2.396318292164282E-002
-2.7268377E-001	2.688500098884106E-002
-3.3266386E-001	1.769621674295353E-002
-2.8266016E-001	2.534938660328800E-002
-3.4270898E-001	1.683295297223830E-002
-2.9268995E-001	2.355645293288899E-002
-3.5266614E-001	1.683295206369262E-002
-3.0266243E-001	2.203744014158193E-002
-3.6272648E-001	1.660883627103074E-002
-3.1268075E-001	2.416239923838037E-002
-3.7272182E-001	1.617720338475444E-002
-3.2269520E-001	2.523317846024165E-002
-3.8268676E-001	1.738909299930799E-002
-3.3265245E-001	2.356475336558139E-002
-3.9261344E-001	1.554635693521600E-002
-3.4269750E-001	2.565650967881078E-002
-4.0266228E-001	1.513132704016953E-002
-3.5265854E-001	2.358135479785817E-002
-4.1263476E-001	1.380322788558577E-002
-3.6268061E-001	2.511696970981098E-002
-4.2263401E-001	1.718157913495341E-002
-3.7267604E-001	2.369756354828889E-002
-4.3260652E-001	1.385303131183204E-002
-3.8267916E-001	1.557955954669282E-002
-4.4263628E-001	1.041657562223997E-002
-3.9265165E-001	2.005359212584468E-002
-4.5260495E-001	9.536709855044886E-003
-4.0263939E-001	2.386357625136556E-002
-4.6263856E-001	1.105572258672072E-002
-4.1263476E-001	2.687670144697893E-002
-4.7264919E-001	9.719323453875557E-003
-4.2263019E-001	2.984832020719413E-002
-4.8254919E-001	1.095611570180272E-002
-4.3259886E-001	2.095005992273596E-002
-4.9259421E-001	2.863013537811945E-003
-4.4265148E-001	2.378057058819605E-002
-5.0259727E-001	7.029923930531354E-003
-4.5263931E-001	2.051842641895230E-002
-5.1263469E-001	8.822856664546241E-003
-4.6263087E-001	3.135073103982466E-002
-5.2264154E-001	7.718874698342836E-003
-4.7259572E-001	3.598247731671378E-002
-5.3257203E-001	2.290271184946225E-003
-4.8257589E-001	2.935028553980845E-002
-5.4259413E-001	4.631045260517250E-003
-4.9264389E-001	3.253772150239218E-002
-5.5262774E-001	2.234169084619245E-004
-5.0261635E-001	3.254602169213089E-002
-5.6257731E-001	3.087130185240705E-003
-5.1258880E-001	3.323497198036179E-002
-5.7261467E-001	1.020276315893683E-003
-5.2255750E-001	3.510261258191383E-002
-5.8255672E-001	-1.395203080945701E-003
-5.3259498E-001	3.052067169514686E-002
-5.9255594E-001	-4.723751392505263E-003
-5.4256743E-001	3.532672600577702E-002
-6.0255891E-001	-4.051401806582762E-003
-5.5255139E-001	3.590777042605298E-002
-6.1255437E-001	-7.695372887056975E-003
-5.6257355E-001	3.553424415219089E-002
-6.2253451E-001	-1.460148737026865E-002
-5.7258421E-001	3.227209976023948E-002
-6.3259107E-001	-1.578017557039862E-002
-5.8256811E-001	2.385527620334987E-002
-6.4254820E-001	-1.247652925667356E-002
-5.9258258E-001	2.546559547519545E-002
-6.5255892E-001	-1.509952430775309E-002
-6.0252458E-001	2.720872592180967E-002
-6.6253519E-001	-1.391253668470716E-002
-6.1259252E-001	2.408769414962630E-002
-6.7256123E-001	-1.304097161830770E-002
-6.2251544E-001	2.515847351321054E-002
-6.8266726E-001	-1.470109537932212E-002
-6.3253760E-001	2.246077237245830E-002
-6.9267416E-001	-1.590468494586000E-002
-6.4252144E-001	2.654467697214820E-002
-7.0263135E-001	-1.711657521841320E-002
-6.5257412E-001	2.495925887690290E-002
-7.1261919E-001	-1.368011902693821E-002
-6.6253531E-001	2.506716606085713E-002
-7.2266418E-001	-1.576357398247957E-002
-6.7256117E-001	3.271203516456095E-002
-7.3263669E-001	-1.615370457749005E-002
-6.8266350E-001	2.363946025624220E-002
-7.4263591E-001	-1.459318758798359E-002
-6.9269711E-001	2.384697607434960E-002
-7.5261605E-001	-1.991388448716508E-002
-7.0263141E-001	2.019470332838269E-002
-7.6262677E-001	-2.037871863854973E-002
-7.1264976E-001	2.170541564650508E-002
-7.7259165E-001	-2.064433890273390E-002
-7.2261083E-001	2.353155143235031E-002
-7.8265959E-001	-2.335034004088654E-002
-7.3261762E-001	2.095005888005960E-002
-7.9257864E-001	-2.393138266937891E-002
-7.4259013E-001	2.028601063901316E-002
-8.0260837E-001	-1.923323236405849E-002
-7.5257409E-001	1.693255969566168E-002
-8.1255800E-001	-1.859408586650441E-002
-7.6261151E-001	1.851797889938334E-002
-8.2259923E-001	-2.099296416196486E-002
-7.7256107E-001	2.050182643427473E-002
-8.3259845E-001	-2.108427114865702E-002
-7.8259850E-001	1.793693552684524E-002
-8.4257859E-001	-1.680945192018282E-002
-7.9260540E-001	1.652583073946118E-002
-8.5257012E-001	-2.291040681302547E-002
-8.0259693E-001	1.359571192575537E-002
-8.6258847E-001	-1.758140943053627E-002
-8.1261528E-001	1.042487667038348E-002
-8.7260681E-001	-1.744860032087435E-002
-8.2261449E-001	1.413525229967805E-002
-8.8258314E-001	-2.252857840579492E-002
-8.3264810E-001	1.538864571763121E-002
-8.9251745E-001	-1.646912676970597E-002
-8.4258240E-001	1.589498355093855E-002
-9.0258926E-001	-1.593788661589118E-002
-8.5261214E-001	1.366211694624758E-002
-9.1251588E-001	-1.610389937464474E-002
-8.6258852E-001	1.011775332786467E-002
-9.2256474E-001	-1.790513480892000E-002
-8.7258387E-001	1.108062520759867E-002
-9.3257546E-001	-1.395403911643056E-002
-8.8255638E-001	1.196879140384819E-002
-9.4254029E-001	-1.134764552926240E-002
-8.9256704E-001	1.191068699067134E-002
-9.5260441E-001	-1.717467925956717E-002
-9.0256631E-001	1.181937990021767E-002
-9.6250057E-001	-1.407024767452286E-002
-9.1255409E-001	6.631493796031340E-003
-9.7258759E-001	-1.133104386288958E-002
-9.2253423E-001	1.406884793845081E-002
-9.8257917E-001	-1.863558918399655E-002
-9.3259454E-001	1.168657049825211E-002
-9.9255168E-001	-1.196189144747738E-002
-9.4255942E-001	1.026716446706458E-002
-1.0025280E+000	-1.569717043362884E-002
-9.5256245E-001	1.000984473806887E-002
-1.0125425E+000	-2.138309237425745E-002
-9.6250439E-001	8.640242959423311E-003
-1.0225608E+000	-1.634461861407471E-002
-9.7253412E-001	7.552862497623589E-003
-1.0325562E+000	-1.540664832219077E-002
-9.8255628E-001	1.308937498833979E-002
-1.0425440E+000	-1.498331638235278E-002
-9.9254787E-001	1.017585775116459E-002
-1.0524974E+000	-1.771422070653542E-002
-1.0025471E+000	1.248342925053135E-002
-1.0624776E+000	-1.836996923362758E-002
-1.0125349E+000	1.520603201756981E-002
-1.0724806E+000	-1.529873951095281E-002
-1.0225035E+000	1.357081019333511E-002
-1.0824875E+000	-1.221921073738486E-002
-1.0325142E+000	1.462498919167757E-002
-1.0926012E+000	-1.599599224636736E-002
-1.0425211E+000	1.272414750976320E-002
-1.1025852E+000	-1.410345047833803E-002
-1.0525012E+000	1.624360930620000E-002
-1.1126074E+000	-1.876839835439689E-002
-1.0625196E+000	1.487400734027766E-002
-1.1225493E+000	-1.936604316427337E-002
-1.0724729E+000	1.314747837149416E-002