Ewe/V	<I>/mA	
-1.2251126E-001	3.062943462282419E-003
-7.2350934E-002	3.389902333063732E-002
-1.3242646E-001	-1.497501613838333E-002
-8.2323477E-002	3.253535074847080E-002
-1.4245626E-001	-1.055671447621924E-002
-9.2349343E-002	2.544425215039933E-002
-1.5241726E-001	-1.688415756715196E-002
-1.0235626E-001	2.566243960921255E-002
-1.6242030E-001	-1.410226497266973E-002
-1.1236311E-001	2.806250378489494E-002
-1.7245393E-001	-1.590231433510780E-002
-1.2245400E-001	2.538970511938846E-002
-1.8244168E-001	-1.944786429937395E-002
-1.3247985E-001	1.955318464232343E-002
-1.9246382E-001	-2.282977370279182E-002
-1.4249825E-001	1.829860638827086E-002
-2.0244016E-001	-2.446618170610498E-002
-1.5242106E-001	1.993501292807709E-002
-2.1240503E-001	-2.119336649775505E-002
-1.6240881E-001	2.517151712839094E-002
-2.2241567E-001	-2.828446429755008E-002
-1.7244244E-001	1.949863614780556E-002
-2.3243780E-001	-3.548466041684151E-002
-1.8246457E-001	2.320782893470358E-002
-2.4245994E-001	-3.412098756858278E-002
-1.9246382E-001	2.026229218712877E-002
-2.5243622E-001	-3.161183026220118E-002
-2.0242099E-001	2.375329818044389E-002
-2.6240876E-001	-3.630286561591289E-002
-2.1245462E-001	2.648064307868481E-002
-2.7241939E-001	-3.466645362121723E-002
-2.2245005E-001	1.998956049127232E-002
-2.8237286E-001	-3.357551699238170E-002
-2.3242632E-001	1.884407629924156E-002
-2.9236442E-001	-3.848474286496639E-002
-2.4242936E-001	2.320782733815052E-002
-3.0240563E-001	-3.761199116706848E-002
-2.5242099E-001	2.380784388099397E-002
-3.1235522E-001	-4.148482371653828E-002
-2.6238206E-001	1.513488540825036E-002
-3.2238117E-001	-4.399398075682781E-002
-2.7242708E-001	3.024437996957982E-002
-3.3234227E-001	-4.743043546165748E-002
-2.8237665E-001	2.233507856726646E-002
-3.4239870E-001	-5.064870629991802E-002
-2.9242548E-001	2.495332980262381E-002
-3.5231778E-001	-5.184873619249891E-002
-3.0240563E-001	2.200779598206282E-002
-3.6236662E-001	-6.204900997025631E-002
-3.1241247E-001	2.260781292404448E-002
-3.7235826E-001	-5.893983585493900E-002
-3.2242322E-001	3.084439677851541E-002
-3.8237271E-001	-6.019441198025444E-002
-3.3236897E-001	2.877161199493061E-002
-3.9236045E-001	-6.330358875649311E-002
-3.4233764E-001	3.313536569476128E-002
-4.0242085E-001	-6.739460836563804E-002
-3.5235977E-001	2.904434794826161E-002
-4.1236275E-001	-8.517690322228866E-002
-3.6241248E-001	2.975345935140336E-002
-4.2234290E-001	-8.670421583311894E-002
-3.7238115E-001	3.318991432232510E-002
-4.3236125E-001	-1.109230497053690E-001
-3.8236123E-001	3.744457316185748E-002
-4.4230703E-001	-1.396692842245102E-001
-3.9234519E-001	4.186287415879109E-002
-4.5234054E-001	-1.807976599250520E-001
-4.0237880E-001	5.369955407721660E-002
-4.6240854E-001	-2.369809682880133E-001
-4.1238186E-001	6.575442265186993E-002
-4.7235432E-001	-3.030918495995656E-001
-4.2237729E-001	7.933660383735375E-002
-4.8237264E-001	-3.973489190850943E-001
-4.3234205E-001	1.212286374398641E-001
-4.9232602E-001	-5.134247711726605E-001
-4.4242156E-001	1.773574224540166E-001
-5.0233287E-001	-6.350098592894415E-001
-4.5231006E-001	2.514866569212504E-001
-5.1237029E-001	-7.757409300122946E-001
-4.6231690E-001	3.519620980535239E-001
-5.2231228E-001	-9.156537396567224E-001
-4.7236192E-001	4.786200523376465E-001
-5.3247178E-001	-1.049566413675038E+000
-4.8234206E-001	6.002596787043988E-001
-5.4240239E-001	-1.157787527356827E+000
-4.9234512E-001	7.275721430778503E-001
-5.5245882E-001	-1.248935495104110E+000
-5.0237113E-001	8.308295011520386E-001
-5.6242746E-001	-1.307682446071084E+000
-5.1230919E-001	9.157590525490882E-001
-5.7241523E-001	-1.326010193143571E+000
-5.2228546E-001	9.681241171700599E-001
-5.8243746E-001	-1.299936754362923E+000
-5.3240687E-001	9.820335677691876E-001
-5.9242523E-001	-1.228862166404724E+000
-5.4241759E-001	9.644149030957907E-001
-6.0237479E-001	-1.134277854646957E+000
-5.5243975E-001	9.303776110921591E-001
-6.1240453E-001	-1.014274571623121E+000
-5.6245804E-001	8.608848793166004E-001
-6.2238085E-001	-8.756708673068463E-001
-5.7245731E-001	7.779735497065960E-001
-6.3242590E-001	-7.582313162939904E-001
-5.8239156E-001	6.814800160271783E-001
-6.4238697E-001	-6.458646655082703E-001
-5.9240609E-001	5.814409937177389E-001
-6.5239763E-001	-5.614261031150818E-001
-6.0236710E-001	4.907294682094019E-001
-6.6238534E-001	-5.004426326070517E-001
-6.1243129E-001	4.042180606297077E-001
-6.7238081E-001	-4.460047909191687E-001
-6.2239230E-001	3.351616561412811E-001
-6.8237239E-001	-4.120766094752719E-001
-6.3239533E-001	2.799601554870605E-001
-6.9243646E-001	-3.845303952693939E-001
-6.4239836E-001	2.326134421995707E-001
-7.0236319E-001	-3.730209895542700E-001
-6.5236712E-001	1.995580153805867E-001
-7.1244264E-001	-3.587296903133392E-001
-6.6233957E-001	1.755573685680112E-001
-7.2235012E-001	-3.494021892547607E-001
-6.7236942E-001	1.577205317361012E-001
-7.3236090E-001	-3.500567376613617E-001
-6.8234181E-001	1.456111158643445E-001
-7.4234104E-001	-3.418747016361792E-001
-6.9238693E-001	1.325198401297841E-001
-7.5233263E-001	-3.474930354527075E-001
-7.0236701E-001	1.330653162939208E-001
-7.6237768E-001	-3.399655733789713E-001
-7.1237010E-001	1.209013547216143E-001
-7.7234638E-001	-3.465111851692200E-001
-7.2238076E-001	1.122829467058182E-001
-7.8232646E-001	-3.468384827886313E-001
-7.3234558E-001	1.139739028045110E-001
-7.9231042E-001	-3.386564467634470E-001
-7.4234486E-001	1.151193859321729E-001
-8.0235547E-001	-3.482566944190442E-001
-7.5240517E-001	1.122283967477935E-001
-8.1231654E-001	-3.426929073674336E-001
-7.6234716E-001	9.908259127821251E-002
-8.2235771E-001	-3.470021103109628E-001
-7.7239984E-001	9.690071216651375E-002
-8.3231884E-001	-3.412201489721030E-001
-7.8233409E-001	1.015372074076109E-001
-8.4232569E-001	-3.374018583978922E-001
-7.9229516E-001	1.032281549913543E-001
-8.5237449E-001	-3.324380857603892E-001
-8.0232877E-001	9.510066360235214E-002
-8.6236233E-001	-3.227832828249246E-001
-8.1231272E-001	8.680953298296257E-002
-8.7236530E-001	-3.125830122402746E-001
-8.2237685E-001	9.106419874089100E-002
-8.8230729E-001	-2.951279921191081E-001
-8.3233792E-001	8.091847385678963E-002
-8.9238286E-001	-2.955643875258311E-001
-8.4234858E-001	7.895477435418519E-002
-9.0229046E-001	-2.836186034338817E-001
-8.5236686E-001	7.764565412487312E-002
-9.1232026E-001	-2.732001330171316E-001
-8.6235082E-001	6.602715541209481E-002
-9.2230803E-001	-2.615816380296438E-001
-8.7238443E-001	6.291798342551491E-002
-9.3246758E-001	-2.557996809482574E-001
-8.8237596E-001	5.626326213989941E-002
-9.4238663E-001	-2.495267710515432E-001
-8.9231414E-001	5.680873032127109E-002
-9.5238203E-001	-2.363809602601186E-001
-9.0234011E-001	4.819031751581598E-002
-9.6239269E-001	-2.267806998320989E-001
-9.1232401E-001	5.037218970911839E-002
-9.7241485E-001	-2.305444415126527E-001
-9.2231566E-001	5.375410030995098E-002
-9.8242170E-001	-2.309262688670839E-001
-9.3242556E-001	5.140858303223328E-002
-9.9239039E-001	-2.257443155561174E-001
-9.4245154E-001	4.813577181526590E-002
-1.0023973E+000	-2.183804746185030E-001
-9.5240879E-001	4.426293873361181E-002
-1.0123965E+000	-2.230715049164638E-001
-9.6246147E-001	4.971762906227784E-002
-1.0223805E+000	-2.229078752653941E-001
-9.7238815E-001	4.895397435341564E-002
-1.0324332E+000	-2.268352465970174E-001
-9.8239881E-001	5.522686668804716E-002
-1.0423560E+000	-2.261261450392857E-001
-9.9244392E-001	5.353591165372301E-002
-1.0523628E+000	-2.318535723856516E-001
-1.0024354E+000	5.064492832337109E-002
-1.0624269E+000	-2.392719558307104E-001
-1.0124155E+000	5.669963466269634E-002
-1.0724109E+000	-2.397628767149791E-001
-1.0223843E+000	5.626326054334641E-002
-1.0823758E+000	-2.425447617258349E-001
-1.0323606E+000	5.980880984238218E-002
-1.0924323E+000	-2.477267320666994E-001
-1.0424514E+000	5.931788629719187E-002
-1.1024009E+000	-2.537268740790233E-001
-1.0523895E+000	5.871787188308575E-002
-1.1124040E+000	-2.643635294267110E-001
-1.0624346E+000	6.602715541209481E-002
-1.1224223E+000	-2.740183472633362E-001
-1.0723765E+000	6.504531736884789E-002