Ewe/V	<I>/mA	
-1.2231509E-001	2.784360758960247E-002
-7.2353266E-002	1.649537611382818E-002
-1.3232574E-001	1.377677263277480E-002
-8.2306720E-002	1.902634216874033E-002
-1.4247389E-001	1.747967010111118E-002
-9.2294551E-002	1.548715045839685E-002
-1.5239678E-001	1.553425064764474E-002
-1.0232048E-001	1.839232408514099E-002
-1.6241503E-001	1.874259973461634E-002
-1.1231973E-001	2.107548690726330E-002
-1.7240278E-001	1.851662644231597E-002
-1.2231121E-001	1.694747216966069E-002
-1.8242112E-001	1.587980017117122E-002
-1.3234483E-001	1.681592851294438E-002
-1.9238605E-001	1.838927580872751E-002
-1.4244331E-001	2.132234294450802E-002
-2.0243488E-001	2.231379996189575E-002
-1.5236232E-001	2.120489778067775E-002
-2.1241122E-001	1.798786067365743E-002
-1.6240743E-001	1.779138150823834E-002
-2.2242956E-001	1.202013354519955E-002
-1.7238757E-001	1.590068294614888E-002
-2.3239815E-001	1.596073946820761E-002
-1.8241352E-001	1.716719600539318E-002
-2.4239358E-001	1.681440349709160E-002
-1.9237077E-001	1.487035712738952E-002
-2.5241572E-001	1.701111007879622E-002
-2.0237374E-001	1.768361603582794E-002
-2.6235002E-001	1.637442578968708E-002
-2.1235009E-001	1.459538008510683E-002
-2.7236065E-001	1.478438881344854E-002
-2.2240660E-001	1.378187915299110E-002
-2.8233320E-001	1.278889645896006E-002
-2.3234849E-001	1.316058904147306E-002
-2.9240501E-001	1.241362246839195E-002
-2.4238598E-001	1.936053584624653E-002
-3.0236217E-001	1.688162465589102E-002
-2.5235465E-001	1.632397263004126E-002
-3.1238052E-001	1.534295522820708E-002
-2.6236150E-001	1.683002850923782E-002
-3.2234538E-001	1.729698711355585E-002
-2.7241033E-001	2.053384044432560E-002
-3.3233693E-001	2.030458952987585E-002
-2.8234470E-001	2.399506564707515E-002
-3.4238204E-001	2.080835986737450E-002
-2.9239351E-001	2.107000019133626E-002
-3.5239276E-001	2.079868001097479E-002
-3.0236220E-001	2.159777785764777E-002
-3.6231557E-001	1.882993944589709E-002
-3.1237292E-001	1.509442423696758E-002
-3.7236440E-001	1.182609493286532E-002
-3.2241794E-001	1.298072582209285E-002
-3.8236371E-001	1.302698719247380E-002
-3.3233321E-001	1.846449709629372E-002
-3.9235139E-001	1.600639200969195E-002
-3.4235534E-001	2.224833299192094E-002
-4.0232393E-001	2.295757407608801E-002
-3.5234690E-001	2.462313838206423E-002
-4.1230401E-001	1.847082286786855E-002
-3.6238432E-001	2.105369079512304E-002
-4.2229179E-001	1.916832614507885E-002
-3.7234911E-001	1.521453641784565E-002
-4.3231779E-001	1.495525806970539E-002
-3.8238272E-001	1.540064883275243E-002
-4.4228265E-001	1.292516605261737E-002
-3.9235139E-001	1.454988042447537E-002
-4.5234677E-001	1.593604713247088E-002
-4.0234303E-001	1.526247365948577E-002
-4.6228874E-001	1.365224089887213E-002
-4.1233847E-001	1.588521155894933E-002
-4.7228035E-001	1.462792250687468E-002
-4.2234150E-001	1.862980415412557E-002
-4.8247430E-001	6.952485781372947E-003
-4.3234068E-001	1.113217300437513E-002
-4.9237421E-001	9.105890850595655E-003
-4.4231701E-001	1.433305359079420E-002
-5.0240397E-001	1.138840213648862E-002
-4.5233917E-001	1.049053347637011E-002
-5.1239181E-001	1.105580711298684E-002
-4.6234599E-001	1.602643583945373E-002
-5.2234906E-001	1.446436873744955E-002
-4.7231087E-001	1.443655169039160E-002
-5.3242457E-001	7.686266799898145E-003
-4.8239407E-001	1.099102606625629E-002
-5.4237795E-001	8.549381521107069E-003
-4.9241239E-001	7.445890317958864E-003
-5.5235428E-001	5.862102318020555E-003
-5.0242305E-001	1.275871624912650E-002
-5.6239551E-001	7.828785807181035E-003
-5.1240325E-001	1.005024927754365E-002
-5.7233369E-001	1.005488797875183E-003
-5.2239096E-001	2.752754093191701E-003
-5.8238637E-001	1.772803858836491E-003
-5.3235966E-001	4.724619673968200E-003
-5.9235501E-001	3.920798243001001E-003
-5.4240853E-001	4.929861887629561E-003
-6.0237330E-001	8.522326016391669E-003
-5.5235428E-001	1.532260671352312E-002
-6.1234581E-001	1.078928954834943E-002
-5.6236881E-001	1.582347978921440E-002
-6.2234503E-001	1.023948725844251E-002
-5.7241386E-001	1.099194061246228E-002
-6.3238245E-001	9.617358225257416E-003
-5.8239782E-001	1.381655616865599E-002
-6.4232445E-001	1.043299283307629E-002
-5.9235889E-001	1.474361422731021E-002
-6.5228927E-001	1.421911505382309E-002
-6.0236573E-001	1.873840868264848E-002
-6.6234189E-001	1.526902885858932E-002
-6.1236107E-001	1.770312640451854E-002
-6.7236024E-001	1.676966622959778E-002
-6.2234885E-001	1.730956215162327E-002
-6.8234044E-001	1.540720293706398E-002
-6.3230991E-001	1.891331705208979E-002
-6.9231671E-001	1.860762571269077E-002
-6.4229012E-001	1.978877904507034E-002
-7.0234269E-001	1.665123092859216E-002
-6.5236181E-001	1.559080123695025E-002
-7.1228462E-001	1.311569892932452E-002
-6.6228086E-001	1.111525401365779E-002
-7.2231060E-001	3.995335160834293E-003
-6.7236030E-001	4.662658292153399E-003
-7.3229074E-001	2.472898807044363E-003
-6.8230599E-001	7.106969835672175E-003
-7.4230140E-001	8.607837555358627E-003
-6.9230145E-001	7.547177636791191E-003
-7.5231975E-001	3.370843515827678E-003
-7.0234269E-001	9.033946126156628E-003
-7.6226550E-001	5.901276314909470E-003
-7.1234190E-001	9.450146630885031E-003
-7.7229911E-001	8.433614207857820E-003
-7.2231054E-001	1.091587943618744E-002
-7.8231740E-001	6.442695011531406E-003
-7.3232883E-001	1.108850310886766E-002
-7.9230142E-001	1.378171693148599E-003
-7.4225938E-001	3.460927770882374E-003
-8.0226243E-001	4.971017174820028E-003
-7.5231594E-001	9.214570757560245E-003
-8.1228071E-001	9.053151847524754E-003
-7.6231515E-001	1.125198050265647E-002
-8.2238305E-001	9.323098735714987E-003
-7.7230674E-001	1.234990782635387E-002
-8.3244336E-001	9.348097179212117E-003
-7.8226393E-001	1.215381182701166E-002
-8.4240443E-001	4.965377346618144E-003
-7.9234719E-001	1.235592889405418E-002
-8.5241890E-001	1.292341265201422E-002
-8.0228531E-001	1.037964319042287E-002
-8.6237228E-001	6.692217649128317E-003
-8.1226933E-001	6.548097968610264E-003
-8.7237918E-001	7.913382488526299E-003
-8.2236779E-001	1.311440333484276E-002
-8.8232881E-001	1.180444977084960E-002
-8.3240515E-001	1.139815748241535E-002
-8.9240813E-001	1.057299595698145E-002
-8.4235096E-001	1.137597902366930E-002
-9.0235394E-001	9.066183753950047E-003
-8.5240364E-001	1.200519543471781E-002
-9.1236460E-001	1.368386885049025E-002
-8.6239523E-001	1.495510628951170E-002
-9.2231423E-001	1.541246228596704E-002
-8.7240589E-001	1.914279563389643E-002
-9.3237454E-001	2.001612289936955E-002
-8.8238984E-001	2.002222112430159E-002
-9.4237751E-001	1.483065002767960E-002
-8.9236999E-001	1.805043041365901E-002
-9.5230806E-001	1.844544349491090E-002
-9.0234250E-001	1.985699043213246E-002
-9.6229583E-001	2.420968133138263E-002
-9.1238374E-001	2.839561847006961E-002
-9.7234470E-001	2.593575885701560E-002
-9.2231423E-001	2.424976880292212E-002
-9.8233628E-001	2.370385465559785E-002
-9.3233258E-001	2.557664237053925E-002
-9.9238133E-001	2.622476063795134E-002
-9.4230503E-001	2.847686168289704E-002
-1.0023690E+000	2.527521845109448E-002
-9.5233095E-001	3.163384210444731E-002
-1.0122843E+000	2.640576567500830E-002
-9.6238750E-001	2.991775001683633E-002
-1.0223446E+000	2.723130940491270E-002
-9.7232181E-001	2.433611846253825E-002
-1.0323248E+000	2.395337680819443E-002
-9.8234391E-001	2.275446524653962E-002
-1.0423278E+000	2.161157222561338E-002
-9.9235845E-001	2.609283485061335E-002
-1.0523118E+000	1.746351347154307E-002
-1.0024531E+000	3.004243475442636E-002
-1.0623492E+000	2.331036488021798E-002
-1.0123454E+000	2.332682733399841E-002
-1.0723598E+000	1.715820235248555E-002
-1.0223447E+000	2.275096026050324E-002
-1.0823781E+000	2.184851919514630E-002
-1.0323210E+000	2.376954894728522E-002
-1.0923392E+000	1.990568934253856E-002
-1.0423430E+000	2.617491691925389E-002
-1.1023461E+000	2.003563353754653E-002
-1.0523919E+000	2.672967393910453E-002
-1.1123110E+000	2.030992525919691E-002
-1.0623721E+000	2.453259764027274E-002
-1.1223102E+000	2.142271453592765E-002
-1.0723370E+000	2.734951542582575E-002