Ewe/V	<I>/mA	
-1.2259548E-001	1.531963329762220E-002
-7.2626121E-002	3.200048487633456E-002
-1.3259472E-001	2.729126971421969E-002
-8.2617611E-002	2.739733410999173E-002
-1.4257479E-001	2.360026233105195E-002
-9.2628330E-002	3.066408706621981E-002
-1.5258932E-001	2.285781754956889E-002
-1.0262749E-001	3.157623220855987E-002
-1.6263822E-001	2.213658614911965E-002
-1.1260392E-001	3.157623189811903E-002
-1.7256102E-001	2.401390914908713E-002
-1.2261837E-001	2.792765220834148E-002
-1.8256414E-001	1.914559706993813E-002
-1.3260992E-001	2.593365834198064E-002
-1.9256718E-001	2.328207188596326E-002
-1.4257099E-001	2.607154054567212E-002
-2.0256248E-001	2.320782842838930E-002
-1.5257783E-001	2.841554377745423E-002
-2.1251981E-001	1.967591419816017E-002
-1.6257708E-001	2.957163430336440E-002
-2.2256483E-001	1.908195921633804E-002
-1.7256483E-001	2.997467594428194E-002
-2.3251054E-001	2.045017716267866E-002
-1.8253738E-001	2.592305174200898E-002
-2.4253654E-001	2.620942321502500E-002
-1.9256712E-001	2.626245520595044E-002
-2.5253192E-001	1.777737948577850E-002
-2.0250909E-001	2.580638178106809E-002
-2.6253113E-001	1.578338497266585E-002
-2.1258849E-001	2.368511184532607E-002
-2.7251890E-001	1.698190220890355E-002
-2.2258385E-001	2.870191462958852E-002
-2.8254873E-001	1.476517702556318E-002
-2.3255259E-001	2.631548611033294E-002
-2.9254028E-001	1.625006450598852E-002
-2.4254796E-001	2.416239784926999E-002
-3.0253190E-001	1.705614805945918E-002
-2.5251281E-001	2.344116633240545E-002
-3.1251967E-001	1.550762101800901E-002
-2.6256171E-001	1.774555956621443E-002
-3.2249600E-001	1.271815244237788E-002
-2.7250749E-001	2.480938621900147E-002
-3.3248758E-001	1.169994304331744E-002
-2.8252962E-001	1.943196772804690E-002
-3.4253260E-001	1.577277912292629E-002
-2.9251358E-001	2.030168830727537E-002
-3.5248217E-001	1.199692041457941E-002
-3.0254719E-001	2.177597086928368E-002
-3.6252347E-001	7.998328694763281E-003
-3.1249669E-001	1.966530876234174E-002
-3.7250736E-001	1.241056826741745E-002
-3.2252270E-001	2.118201486559373E-002
-3.8245311E-001	9.143814331158254E-003
-3.3257154E-001	2.667610331748922E-002
-3.9244848E-001	9.621099315053366E-003
-3.4252498E-001	2.467150378247929E-002
-4.0245160E-001	1.116962624797047E-002
-3.5251275E-001	2.748218383122648E-002
-4.1247755E-001	1.122265744035958E-002
-3.6248910E-001	2.895646557832757E-002
-4.2247677E-001	1.283482276549977E-002
-3.7251115E-001	2.635791214803851E-002
-4.3244544E-001	1.087264780653638E-002
-3.8247600E-001	2.300630644377732E-002
-4.4245997E-001	6.290707659597196E-003
-3.9251345E-001	2.151081191065410E-002
-4.5255080E-001	8.761986194359552E-003
-4.0247837E-001	2.104413449867731E-002
-4.6256143E-001	2.143626782829717E-003
-4.1247755E-001	2.396087762382296E-002
-4.7254539E-001	2.398178535764191E-003
-4.2244622E-001	2.294266917225385E-002
-4.8256379E-001	8.708652304550112E-004
-4.3249890E-001	2.510636336066654E-002
-4.9251717E-001	8.599541918859655E-005
-4.4244090E-001	2.441695192828774E-002
-5.0256598E-001	-2.045879738741659E-003
-4.5256606E-001	2.514878913967145E-002
-5.1253468E-001	-7.391478011009492E-003
-4.6253854E-001	2.370632507113946E-002
-5.2251482E-001	-7.762700100000908E-003
-4.7256836E-001	2.666549576032493E-002
-5.3254080E-001	-9.586991166644215E-003
-4.8254851E-001	2.824584063556457E-002
-5.4257816E-001	-1.181432434694014E-002
-4.9252486E-001	2.491544973519114E-002
-5.5251634E-001	-1.273707600517406E-002
-5.0255072E-001	2.671852710449861E-002
-5.6252700E-001	-1.588716114120975E-002
-5.1251948E-001	2.917920084049297E-002
-5.7254910E-001	-1.664021225749619E-002
-5.2254152E-001	3.056863043457259E-002
-5.8253306E-001	-1.984332755414980E-002
-5.3255612E-001	2.840493774662414E-002
-5.9250551E-001	-1.972665874442708E-002
-5.4253620E-001	2.982618680430783E-002
-6.0250479E-001	-1.957816987608871E-002
-5.5251634E-001	3.870369587093592E-002
-6.1249262E-001	-1.572806620970374E-002
-5.6245452E-001	3.895825023452437E-002
-6.2248796E-001	-2.529499061509144E-002
-5.7254148E-001	3.036710901910222E-002
-6.3248718E-001	-2.446769436614382E-002
-5.8246440E-001	3.038832307275796E-002
-6.4249027E-001	-2.455254535501206E-002
-5.9253609E-001	3.033529175445437E-002
-6.5248942E-001	-2.405404796202981E-002
-6.0248578E-001	2.945496483395496E-002
-6.6249245E-001	-2.539044747956926E-002
-6.1251169E-001	3.108834097575810E-002
-6.7248797E-001	-2.653593181942901E-002
-6.2253004E-001	2.948678357319690E-002
-6.8246043E-001	-2.543287191333043E-002
-6.3246816E-001	2.532909696714741E-002
-6.9247109E-001	-2.559196793784699E-002
-6.4249784E-001	2.941253853754855E-002
-7.0247412E-001	-2.418132297073802E-002
-6.5246654E-001	3.123682965007094E-002
-7.1249628E-001	-2.452072746948236E-002
-6.6247338E-001	2.608214667998252E-002
-7.2245735E-001	-2.300401921901438E-002
-6.7254138E-001	2.630488059690428E-002
-7.3253286E-001	-2.373585661148860E-002
-6.8252534E-001	2.547758600364128E-002
-7.4246728E-001	-2.637683708841604E-002
-6.9250166E-001	2.649579502435190E-002
-7.5245887E-001	-2.896478565202819E-002
-7.0251232E-001	2.140474888599581E-002
-7.6245809E-001	-2.666320806990069E-002
-7.1245813E-001	2.527606531253290E-002
-7.7242678E-001	-2.676927168957066E-002
-7.2246498E-001	2.585941426352489E-002
-7.8242600E-001	-2.711928025301963E-002
-7.3246807E-001	2.131989732798600E-002
-7.9242522E-001	-2.684351693217957E-002
-7.4242902E-001	2.811856619599784E-002
-8.0242443E-001	-2.937843386704730E-002
-7.5247031E-001	2.529727812442514E-002
-8.1241220E-001	-2.881629723641607E-002
-7.6244283E-001	2.608214655063218E-002
-8.2243437E-001	-2.852992568578994E-002
-7.7246112E-001	2.353662384363509E-002
-8.3242214E-001	-2.598440272009207E-002
-7.8248328E-001	2.538212869937218E-002
-8.4243280E-001	-2.885872270498011E-002
-7.9249012E-001	1.935772473613417E-002
-8.5251981E-001	-2.740565195886630E-002
-8.0241299E-001	1.943196810316294E-002
-8.6257249E-001	-2.872084029432803E-002
-8.1242752E-001	2.208355457211533E-002
-8.7254500E-001	-2.410707948729396E-002
-8.2243812E-001	1.981379700333086E-002
-8.8251752E-001	-2.006606172977224E-002
-8.3241832E-001	1.937893648735350E-002
-8.9252055E-001	-2.179489602955681E-002
-8.4242517E-001	1.987743442360723E-002
-9.0251976E-001	-1.971605241609117E-002
-8.5257715E-001	1.706675359875787E-002
-9.1258013E-001	-2.059637902614972E-002
-8.6251140E-001	1.708796576389834E-002
-9.2256784E-001	-1.949331880961028E-002
-8.7251830E-001	1.937893726345563E-002
-9.3251741E-001	-1.316133027689324E-002
-8.8250226E-001	1.663189395589547E-002
-9.4250518E-001	-2.026758179999891E-002
-8.9249384E-001	1.821223941321171E-002
-9.5254266E-001	-1.416893324090379E-002
-9.0252739E-001	1.681220208087725E-002
-9.6249223E-001	-2.001303010102778E-002
-9.1257632E-001	1.858346151291496E-002
-9.7250295E-001	-1.627959530904063E-002
-9.2252970E-001	1.326968238895966E-002
-9.8250979E-001	-1.749932685763472E-002
-9.3252510E-001	1.329089522672196E-002
-9.9256629E-001	-1.842207818602523E-002
-9.4248611E-001	1.163630528834700E-002
-1.0024929E+000	-2.151913056150084E-002
-9.5246625E-001	1.373636176059435E-002
-1.0125303E+000	-2.042667826430666E-002
-9.6253800E-001	1.361969168970567E-002
-1.0224494E+000	-2.158276961805922E-002
-9.7252584E-001	1.692887080005473E-002
-1.0324982E+000	-2.265401021577421E-002
-9.8251361E-001	1.304694923197126E-002
-1.0424784E+000	-1.958877585517864E-002
-9.9251658E-001	1.750161351325610E-002
-1.0525272E+000	-2.253733937525087E-002
-1.0024776E+000	1.464850750441349E-002
-1.0624731E+000	-2.053274087504381E-002
-1.0124960E+000	1.344998985425463E-002
-1.0724951E+000	-2.458436481861609E-002
-1.0224799E+000	1.326968242776477E-002
-1.0824982E+000	-2.189035338556601E-002
-1.0324944E+000	2.158505676521195E-002
-1.0924898E+000	-2.006606165216202E-002
-1.0424899E+000	1.793647430733669E-002
-1.1024890E+000	-2.252673362899158E-002
-1.0524700E+000	1.499851692804238E-002
-1.1124309E+000	-2.414950508520836E-002
-1.0624081E+000	1.530610093484736E-002
-1.1224989E+000	-2.428738793565167E-002
-1.0724760E+000	1.656825620577565E-002