Ewe/V	<I>/mA	
-1.2238305E-001	-1.862645265646279E-003
-7.2386928E-002	2.427149271326406E-002
-1.3235171E-001	7.089213218673007E-003
-8.2370877E-002	2.408057797167981E-002
-1.4234716E-001	2.207264582726305E-003
-9.2400692E-002	1.884407463616555E-002
-1.5236169E-001	-5.473550253165226E-004
-1.0234259E-001	1.985319191589952E-002
-1.6238382E-001	-3.329247955532215E-003
-1.1238762E-001	1.715311950205690E-002
-1.7234100E-001	-1.501926150272736E-003
-1.2236396E-001	1.554398694341735E-002
-1.8236701E-001	2.398178684026269E-003
-1.3237849E-001	1.908953640876068E-002
-1.9236237E-001	-2.746201696157062E-004
-1.4234336E-001	1.840770064986178E-002
-2.0239599E-001	-3.983811358921230E-003
-1.5233111E-001	1.769859001173504E-002
-2.1247159E-001	2.316358082420526E-003
-1.6238001E-001	1.731676192555040E-002
-2.2245167E-001	-1.382531668891068E-004
-1.7234480E-001	1.690766009102973E-002
-2.3244710E-001	-3.765623451077511E-003
-1.8235172E-001	1.846224568518140E-002
-2.4245782E-001	-2.156488630654558E-003
-1.9239675E-001	1.445304801953691E-002
-2.5241500E-001	-3.018938846902788E-004
-2.0244178E-001	1.701675338803656E-002
-2.6245242E-001	-4.447459367968684E-003
-2.1240664E-001	1.546216616407031E-002
-2.7244776E-001	-6.465695706927885E-003
-2.2247843E-001	1.382575826054172E-002
-2.8241646E-001	-4.802014570616714E-003
-2.3245090E-001	1.968955095591290E-002
-2.9240808E-001	-6.874798223309747E-003
-2.4238527E-001	1.311664817123007E-002
-3.0243790E-001	-7.447540273590545E-003
-2.5242260E-001	1.028020817986025E-002
-3.1235310E-001	-6.274781730358628E-003
-2.6248682E-001	2.075321772801024E-002
-3.2243249E-001	-9.929425382454504E-003
-2.7244398E-001	1.360757086825158E-002
-3.3239737E-001	-1.142946569806166E-002
-2.8239736E-001	1.573489995540253E-002
-3.4235463E-001	-1.042034734772251E-002
-2.9238901E-001	2.078048964696266E-002
-3.5239583E-001	-9.274862739922746E-003
-3.0241114E-001	1.808041759899687E-002
-3.6241412E-001	-1.126582499793069E-002
-3.1243327E-001	1.919862900727554E-002
-3.7236369E-001	-1.295678019024697E-002
-3.2243630E-001	1.701675362086722E-002
-3.8240877E-001	-1.647505709635359E-002
-3.3238590E-001	1.701675189126815E-002
-3.9241183E-001	-1.819328604532140E-002
-3.4241191E-001	1.494397066250844E-002
-4.0239197E-001	-1.827510399743915E-002
-3.5241494E-001	1.862588704430631E-002
-4.1241410E-001	-1.950241212866136E-002
-3.6238351E-001	1.925317637090174E-002
-4.2241326E-001	-2.441163387681758E-002
-3.7238279E-001	1.884407390441215E-002
-4.3238202E-001	-2.375707110123981E-002
-3.8237053E-001	2.099867730534503E-002
-4.4232011E-001	-2.858447403247866E-002
-3.9242324E-001	2.217143680900324E-002
-4.5238811E-001	-2.975723174001491E-002
-4.0237281E-001	2.626245628510201E-002
-4.6237198E-001	-3.000269364565622E-002
-4.1243693E-001	2.628972886928488E-002
-4.7235215E-001	-3.973931992160440E-002
-4.2236367E-001	2.978073193558622E-002
-4.8236659E-001	-4.985777262066091E-002
-4.3233997E-001	2.792613567518336E-002
-4.9233913E-001	-5.833982170692509E-002
-4.4233152E-001	2.705338557383841E-002
-5.0235742E-001	-6.504908895918299E-002
-4.5240331E-001	3.329900638865572E-002
-5.1233757E-001	-7.972221555454384E-002
-4.6234527E-001	3.725365788808876E-002
-5.2230626E-001	-9.414987585374313E-002
-4.7234833E-001	3.793549590877127E-002
-5.3235519E-001	-1.043501464383942E-001
-4.8234749E-001	4.445385267691954E-002
-5.4231238E-001	-1.183141549783094E-001
-4.9237350E-001	5.776330003780972E-002
-5.5231541E-001	-1.242870470242841E-001
-5.0235355E-001	6.389982971761907E-002
-5.6234896E-001	-1.349237007754192E-001
-5.1236427E-001	7.625470629760178E-002
-5.7234824E-001	-1.308599524199963E-001
-5.2233303E-001	8.800957032612367E-002
-5.8227104E-001	-1.307508615510804E-001
-5.3233230E-001	9.572795938168255E-002
-5.9231234E-001	-1.267961998070989E-001
-5.4229707E-001	1.001189856656959E-001
-6.0233444E-001	-1.274234982473512E-001
-5.5233830E-001	9.351880475878671E-002
-6.1237562E-001	-1.259507366589137E-001
-5.6225353E-001	8.967324452740810E-002
-6.2240547E-001	-1.176595911383629E-001
-5.7231003E-001	8.271851337381769E-002
-6.3243902E-001	-1.177414118179253E-001
-5.8234745E-001	7.835476419755394E-002
-6.4243442E-001	-1.123958160834653E-001
-5.9235048E-001	7.069092190691401E-002
-6.5239543E-001	-1.112503308270658E-001
-6.0226184E-001	6.826358182089665E-002
-6.6241002E-001	-1.127230993338995E-001
-6.1241382E-001	5.852695714150147E-002
-6.7242825E-001	-1.080593381609235E-001
-6.2245888E-001	5.653599410184795E-002
-6.8238169E-001	-1.052501717848437E-001
-6.3240844E-001	5.541778169572331E-002
-6.9240767E-001	-1.111139623182160E-001
-6.4239246E-001	4.993581665413716E-002
-7.0242208E-001	-1.062320108924594E-001
-6.5238398E-001	4.606298410466741E-002
-7.1236789E-001	-1.096957427050389E-001
-6.6241384E-001	4.295381291636402E-002
-7.2240913E-001	-1.091775468417577E-001
-6.7237872E-001	4.131740478000467E-002
-7.3233968E-001	-1.147413301680769E-001
-6.8240839E-001	4.099012192870891E-002
-7.4238849E-001	-1.114685146936348E-001
-6.9238091E-001	4.268107643084867E-002
-7.5236106E-001	-1.139504063342298E-001
-7.0244503E-001	3.910825308412302E-002
-7.6232970E-001	-1.166504733264451E-001
-7.1232980E-001	4.069011685039317E-002
-7.7235186E-001	-1.126412781221529E-001
-7.2240531E-001	4.295381344854832E-002
-7.8236252E-001	-1.141413189470768E-001
-7.3238927E-001	3.733548096248079E-002
-7.9236174E-001	-1.100775711238389E-001
-7.4235415E-001	4.052647389471509E-002
-8.0237627E-001	-1.105139441788197E-001
-7.5236100E-001	3.722638437258330E-002
-8.1234109E-001	-1.128867369677342E-001
-7.6237172E-001	3.711729323757540E-002
-8.2238233E-001	-1.100230254232883E-001
-7.7237093E-001	3.147168390985039E-002
-8.3237392E-001	-1.090684549084733E-001
-7.8237778E-001	3.310809178011753E-002
-8.4233874E-001	-1.075956858694553E-001
-7.9233122E-001	3.406266468976224E-002
-8.5238379E-001	-1.072138585150242E-001
-8.0233043E-001	3.398084321192335E-002
-8.6235631E-001	-1.070502219455585E-001
-8.1236780E-001	3.051711512463434E-002
-8.7237847E-001	-1.026319190859795E-001
-8.2232887E-001	3.722638450562954E-002
-8.8237387E-001	-1.011318745357652E-001
-8.3235866E-001	3.839914287839619E-002
-8.9238453E-001	-9.273165517619680E-002
-8.4236169E-001	2.601699471207597E-002
-9.0230739E-001	-9.079523491007946E-002
-8.5239148E-001	2.233507750289776E-002
-9.1231042E-001	-8.681331415261540E-002
-8.6238682E-001	2.394421265593599E-002
-9.2235166E-001	-8.449506866080425E-002
-8.7240136E-001	2.165323968178451E-002
-9.3238908E-001	-8.517690322228866E-002
-8.8237387E-001	1.988046729405007E-002
-9.4233102E-001	-7.653122182403282E-002
-8.9233488E-001	2.260781352275187E-002
-9.5235318E-001	-7.882219127246337E-002
-9.0230739E-001	2.146232647023028E-002
-9.6234477E-001	-7.557665130921798E-002
-9.1231048E-001	2.135323247473153E-002
-9.7232491E-001	-7.385842555335592E-002
-9.2232877E-001	1.671674438486140E-002
-9.8231643E-001	-7.552209869027182E-002
-9.3231273E-001	1.707129898880208E-002
-9.9235773E-001	-7.563119700976806E-002
-9.4230050E-001	2.102595221783435E-002
-1.0023226E+000	-7.819490347589775E-002
-9.5234936E-001	1.682583851340624E-002
-1.0123332E+000	-7.904037513903228E-002
-9.6236384E-001	1.718039471389993E-002
-1.0224355E+000	-7.620393963796746E-002
-9.7231728E-001	2.129868637504323E-002
-1.0324004E+000	-7.473117432424026E-002
-9.8229736E-001	1.865316055981175E-002
-1.0424416E+000	-7.833126453416717E-002
-9.9235010E-001	2.037138950877959E-002
-1.0524523E+000	-7.868582436016647E-002
-1.0023302E+000	1.944409151162421E-002
-1.0623752E+000	-8.144044397132766E-002
-1.0124172E+000	2.252599304275854E-002
-1.0723286E+000	-8.285866464887337E-002
-1.0224127E+000	2.072594507730433E-002
-1.0824308E+000	-8.487689707960411E-002
-1.0324156E+000	1.922590458499533E-002
-1.0923576E+000	-8.738605678081512E-002
-1.0424073E+000	1.911680952512792E-002
-1.1023682E+000	-8.195863930242431E-002
-1.0524180E+000	1.739858134117511E-002
-1.1123331E+000	-8.760424117956855E-002
-1.0623943E+000	2.383511925914458E-002
-1.1223744E+000	-9.660448559692947E-002
-1.0724546E+000	1.952591185857143E-002