Ewe/V	<I>/mA	
-1.2234082E-001	1.054677926003933E-002
-7.2352380E-002	4.764484427869320E-002
-1.3233246E-001	2.143626140120130E-003
-8.2347736E-002	4.980854255457717E-002
-1.4233169E-001	4.561873114046950E-003
-9.2346981E-002	4.605389510591817E-002
-1.5232325E-001	-1.483743137214333E-003
-1.0237672E-001	4.770848341286182E-002
-1.6244464E-001	-2.883781164806958E-003
-1.1231489E-001	4.223561038573576E-002
-1.7243239E-001	-6.765704369172454E-003
-1.2234850E-001	3.860823872188729E-002
-1.8243164E-001	-3.583800455089659E-003
-1.3234386E-001	3.701728675514460E-002
-1.9244236E-001	-7.592998803981267E-003
-1.4232402E-001	4.427202915151907E-002
-2.0239954E-001	-1.402044482529163E-002
-1.5234615E-001	3.949917107820511E-002
-2.1235299E-001	-1.223857825001082E-002
-1.6245992E-001	4.395383782684781E-002
-2.2247438E-001	-1.395680615678435E-002
-1.7238280E-001	4.261743960281211E-002
-2.3242396E-001	-1.669324437777203E-002
-1.8238965E-001	4.064466059207916E-002
-2.4240790E-001	-2.006606183325250E-002
-1.9238122E-001	4.039010684937228E-002
-2.5239566E-001	-2.394798522194230E-002
-2.0246069E-001	4.516296274960041E-002
-2.6242161E-001	-1.478409999981528E-002
-2.1244465E-001	4.051738232374191E-002
-2.7241704E-001	-2.102063503116369E-002
-2.2240944E-001	4.058102083702880E-002
-2.8239718E-001	-2.222975653906667E-002
-2.3241255E-001	4.013555434842903E-002
-2.9239634E-001	-3.082089778035879E-002
-2.4241172E-001	4.204469732940197E-002
-3.0237651E-001	-3.483009741952023E-002
-2.5243384E-001	4.236288554966428E-002
-3.1241393E-001	-3.234821278601896E-002
-2.6239878E-001	4.509932237366837E-002
-3.2243994E-001	-2.668442142506439E-002
-2.7238268E-001	3.644454510261616E-002
-3.3238184E-001	-3.680287798245752E-002
-2.8242007E-001	4.490840993821621E-002
-3.4240398E-001	-4.195756154755753E-002
-2.9243460E-001	4.395383782684781E-002
-3.5234594E-001	-4.087571489314240E-002
-3.0242237E-001	5.050856061279774E-002
-3.6234516E-001	-3.845746566851938E-002
-3.1242922E-001	4.637208643058938E-002
-3.7236351E-001	-4.615767548481631E-002
-3.2238641E-001	4.471749439835548E-002
-3.8238946E-001	-4.946685396134876E-002
-3.3237422E-001	5.038128358622390E-002
-3.9241537E-001	-5.538519285619259E-002
-3.4239629E-001	5.610871004561585E-002
-4.0235355E-001	-6.378541948894662E-002
-3.5242230E-001	4.420839187999565E-002
-4.1233751E-001	-8.338594933350896E-002
-3.6241013E-001	4.872669403751695E-002
-4.2229468E-001	-9.942273919781053E-002
-3.7232524E-001	6.043609976768494E-002
-4.3232828E-001	-1.210596871872743E-001
-3.8236266E-001	7.010908549030626E-002
-4.4235045E-001	-1.637608284751575E-001
-3.9235431E-001	7.494557524720824E-002
-4.5231909E-001	-2.224351291855176E-001
-4.0238026E-001	7.901841526230180E-002
-4.6235645E-001	-2.924369970957441E-001
-4.1237569E-001	9.900077680746722E-002
-4.7231758E-001	-3.880213995774584E-001
-4.2235196E-001	1.368017755448814E-001
-4.8235491E-001	-5.128793120384216E-001
-4.3235499E-001	1.917214368780453E-001
-4.9232367E-001	-6.558104356129970E-001
-4.4236946E-001	2.698689699172974E-001
-5.0233430E-001	-8.155419925848646E-001
-4.5235726E-001	3.646260648965818E-001
-5.1232588E-001	-9.865374863147736E-001
-4.6235651E-001	5.022752285003662E-001
-5.2235568E-001	-1.151678204536438E+000
-4.7230989E-001	6.574884653091431E-001
-5.3231287E-001	-1.308227936426800E+000
-4.8234352E-001	8.154382010300951E-001
-5.4234266E-001	-1.446640710035959E+000
-4.9236184E-001	9.523873229821520E-001
-5.5233043E-001	-1.549098074436195E+000
-5.0230372E-001	1.061590154965717E+000
-5.6228381E-001	-1.612990617752075E+000
-5.1236409E-001	1.156538228193918E+000
-5.7230216E-001	-1.641691386699677E+000
-5.2233660E-001	1.215148905913034E+000
-5.8240062E-001	-1.611081600189209E+000
-5.3233963E-001	1.235894819100698E+000
-5.9243804E-001	-1.543688853581749E+000
-5.4233503E-001	1.215276102224985E+000
-6.0241061E-001	-1.429776648680368E+000
-5.5236858E-001	1.171365837256113E+000
-6.1239070E-001	-1.292827486991882E+000
-5.6229532E-001	1.093218326568604E+000
-6.2239754E-001	-1.130741337935129E+000
-5.7230604E-001	9.919701516628265E-001
-6.3241208E-001	-9.741280277570095E-001
-5.8235866E-001	8.804126282533007E-001
-6.4239979E-001	-8.336788117885625E-001
-5.9244186E-001	7.608366707960768E-001
-6.5237230E-001	-7.113664448261261E-001
-6.0239911E-001	6.433608035246534E-001
-6.6242498E-001	-6.178184747695923E-001
-6.1237168E-001	5.438945144414884E-001
-6.7238992E-001	-5.414528101682663E-001
-6.2242806E-001	4.530193607012425E-001
-6.8242347E-001	-4.913059969743099E-001
-6.3243878E-001	3.732172101736051E-001
-6.9238061E-001	-4.618415683507919E-001
-6.4239979E-001	3.108518918355303E-001
-7.0241046E-001	-4.423046559095383E-001
-6.5239519E-001	2.654779503742852E-001
-7.1238303E-001	-4.130311558643975E-001
-6.6237539E-001	2.281224181254706E-001
-7.2238594E-001	-4.098492711782455E-001
-6.7242426E-001	2.006944020589194E-001
-7.3236990E-001	-4.015126725037899E-001
-6.8235469E-001	1.826848338047662E-001
-7.4232334E-001	-3.948942969242730E-001
-6.9239211E-001	1.712299759189289E-001
-7.5236458E-001	-3.922215004762011E-001
-7.0240283E-001	1.592023770014444E-001
-7.6234478E-001	-3.967398007710781E-001
-7.1238303E-001	1.582477986812592E-001
-7.7234018E-001	-3.896123468875885E-001
-7.2238219E-001	1.524567479888599E-001
-7.8232026E-001	-3.940670092900600E-001
-7.3232412E-001	1.444383511940637E-001
-7.9233479E-001	-3.920306017001471E-001
-7.4233478E-001	1.440565263231595E-001
-8.0232638E-001	-3.931760986646022E-001
-7.5230736E-001	1.340653337538242E-001
-8.1232941E-001	-3.969943672418594E-001
-7.6234096E-001	1.384563719232876E-001
-8.2235533E-001	-3.851576944192248E-001
-7.7235538E-001	1.275106209019820E-001
-8.3233172E-001	-3.849667757749575E-001
-7.8234321E-001	1.309470782677331E-001
-8.4236145E-001	-3.822303265333176E-001
-7.9235005E-001	1.246469082931677E-001
-8.5236448E-001	-3.774574895699816E-001
-8.0229580E-001	1.187922085324924E-001
-8.6230266E-001	-3.651753266652431E-001
-8.1232178E-001	1.175830885767937E-001
-8.7237823E-001	-3.601479132970180E-001
-8.2234395E-001	1.009735502302647E-001
-8.8238508E-001	-3.471021205186862E-001
-8.3233929E-001	1.042190889517467E-001
-8.9233464E-001	-3.399110138416290E-001
-8.4233850E-001	9.760073199868202E-002
-9.0233392E-001	-3.233014742533369E-001
-8.5227668E-001	9.289151554306352E-002
-9.1227585E-001	-3.093011180559797E-001
-8.6234462E-001	8.945506314436580E-002
-9.2227125E-001	-2.995008329550428E-001
-8.7234765E-001	8.073663587371505E-002
-9.3233919E-001	-2.879823545614881E-001
-8.8232398E-001	7.080910292764503E-002
-9.4233459E-001	-2.816185355186462E-001
-8.9229643E-001	7.061818925042945E-002
-9.5234531E-001	-2.697182248036065E-001
-9.0235680E-001	6.794538969794905E-002
-9.6227962E-001	-2.725819299618402E-001
-9.1231018E-001	6.361799873411655E-002
-9.7225976E-001	-2.638635312517483E-001
-9.2236286E-001	6.145430852969480E-002
-9.8229718E-001	-2.607452546556790E-001
-9.3228573E-001	6.228160299360730E-002
-9.9238801E-001	-2.606816043456397E-001
-9.4227737E-001	6.495440130432451E-002
-1.0023490E+000	-2.635453318556149E-001
-9.5228422E-001	7.010908611118793E-002
-1.0123788E+000	-2.557814990480740E-001
-9.6233302E-001	6.355435959994771E-002
-1.0224086E+000	-2.546996424595513E-001
-9.7230560E-001	6.692717783153035E-002
-1.0323964E+000	-2.610634366671247E-001
-9.8230863E-001	6.508167150119942E-002
-1.0424185E+000	-2.652635624011359E-001
-9.9239182E-001	7.360917329788208E-002
-1.0523911E+000	-2.657090077797570E-001
-1.0023261E+000	6.438165841003257E-002
-1.0623215E+000	-2.624634777506192E-001
-1.0123712E+000	7.080910106499982E-002
-1.0723550E+000	-2.681909153858819E-001
-1.0224010E+000	7.755474001169205E-002
-1.0823886E+000	-2.764002184073133E-001
-1.0324039E+000	7.838203137119615E-002
-1.0923191E+000	-2.865823258956275E-001
-1.0423880E+000	7.380009194215131E-002
-1.1023833E+000	-2.935188512007398E-001
-1.0523757E+000	7.780928785602248E-002
-1.1123635E+000	-3.015372455120087E-001
-1.0623826E+000	8.652770767609286E-002
-1.1223665E+000	-3.101920187473297E-001
-1.0724086E+000	8.818229536215449E-002