Ewe/V	<I>/mA	
-1.2257276E-001	2.631629444658756E-002
-7.2477378E-002	2.688041348990641E-002
-1.3250704E-001	2.138409448027806E-002
-8.2488030E-002	2.621221531329578E-002
-1.4259793E-001	2.117308382386046E-002
-9.2567503E-002	2.114293879314666E-002
-1.5256280E-001	2.073599031734231E-002
-1.0258196E-001	2.486576628871257E-002
-1.6254683E-001	1.651578145040394E-002
-1.1254682E-001	2.274059104782183E-002
-1.7256889E-001	2.596603658687519E-002
-1.2258425E-001	2.220301645023648E-002
-1.8259490E-001	1.700311593748138E-002
-1.3256820E-001	2.047474110057870E-002
-1.9252159E-001	1.796773479222075E-002
-1.4255595E-001	2.088671226029920E-002
-2.0256661E-001	1.841990074976102E-002
-1.5252082E-001	2.432316899495689E-002
-2.1252759E-001	1.750049805023557E-002
-1.6253914E-001	2.194678804248963E-002
-2.2253831E-001	1.588777517348428E-002
-1.7254987E-001	2.225828151782287E-002
-2.3249176E-001	1.700311589918685E-002
-1.8258721E-001	2.060536458157000E-002
-2.4247953E-001	1.688756263434985E-002
-1.9254060E-001	1.702823609383286E-002
-2.5250545E-001	1.880172756500537E-002
-2.0251314E-001	1.752059420840324E-002
-2.6246271E-001	1.348627567609870E-002
-2.1255057E-001	1.919862885322221E-002
-2.7250394E-001	1.780194035535188E-002
-2.2249633E-001	1.985175587776067E-002
-2.8249168E-001	1.698804320154809E-002
-2.3254517E-001	2.458441995182319E-002
-2.9250234E-001	1.342096250798357E-002
-2.4251771E-001	1.846511664457227E-002
-3.0249396E-001	1.379274316499690E-002
-2.5252455E-001	1.667655213417385E-002
-3.1247786E-001	1.640525337853954E-002
-2.6247793E-001	2.268030251204767E-002
-3.2251149E-001	2.057019748271588E-002
-2.7251917E-001	2.317768407642445E-002
-3.3247253E-001	1.706842816508325E-002
-2.8252226E-001	1.930413519393798E-002
-3.4250996E-001	1.527986428577843E-002
-2.9253283E-001	2.313246625769683E-002
-3.5249764E-001	1.854550116695464E-002
-3.0252060E-001	2.232861713089637E-002
-3.6253512E-001	1.754069007246900E-002
-3.1248933E-001	2.485069570033560E-002
-3.7251908E-001	1.569183706305918E-002
-3.2253817E-001	2.206736735656462E-002
-3.8244188E-001	1.284821966730401E-002
-3.3247635E-001	1.956036129329158E-002
-3.9249840E-001	1.534517734360535E-002
-3.4242979E-001	1.981658743400322E-002
-4.0244037E-001	1.417959517474579E-002
-3.5247862E-001	2.237885810532852E-002
-4.1248161E-001	1.575212599403272E-002
-3.6249307E-001	1.659114221662378E-002
-4.2248464E-001	1.305923019045668E-002
-3.7245795E-001	2.048981179311675E-002
-4.3247628E-001	1.567676482648638E-002
-3.8249534E-001	2.037928376567399E-002
-4.4246784E-001	1.407409024633172E-002
-3.9249459E-001	1.880675323283004E-002
-4.5245558E-001	1.301903770064725E-002
-4.0252432E-001	2.095704935613626E-002
-4.6243566E-001	1.040652756388513E-002
-4.1250828E-001	1.845004384124060E-002
-4.7244638E-001	1.031107052825206E-002
-4.2245027E-001	2.199200609404789E-002
-4.8241505E-001	1.103955895699694E-002
-4.3243420E-001	2.291643224337971E-002
-4.9247158E-001	8.909358082746621E-003
-4.4250220E-001	2.543850868058045E-002
-5.0252807E-001	7.527741933269050E-003
-4.5252433E-001	2.049986019387445E-002
-5.1255018E-001	3.473327176643094E-003
-4.6248531E-001	1.724426957509034E-002
-5.2251893E-001	4.262104500173183E-003
-4.7244260E-001	1.847516550180061E-002
-5.3259444E-001	8.638059109790958E-003
-4.8249909E-001	2.392124371161977E-002
-5.4253256E-001	1.486789178421816E-002
-4.9255940E-001	2.399660433691581E-002
-5.5252808E-001	4.231959719809789E-003
-5.0254333E-001	2.382578656665588E-002
-5.6251955E-001	7.296635509670801E-003
-5.1256537E-001	2.421766384137108E-002
-5.7251889E-001	4.196791442920680E-003
-5.2257234E-001	2.039435432341535E-002
-5.8259058E-001	2.759910838568955E-003
-5.3258687E-001	2.486576758766251E-002
-5.9253258E-001	5.312132059675359E-003
-5.4256314E-001	1.786725410248006E-002
-6.0254711E-001	-6.363523059821768E-004
-5.5251652E-001	2.053000573313941E-002
-6.1252338E-001	5.091328427959899E-004
-5.6255776E-001	2.007281570695338E-002
-6.2248820E-001	-9.679401807117863E-004
-5.7245773E-001	2.207239084926088E-002
-6.3251799E-001	-4.504877044191266E-003
-5.8253717E-001	1.783208534930293E-002
-6.4248294E-001	-3.414656612891892E-003
-5.9251344E-001	2.086661613889429E-002
-6.5250498E-001	-4.941970438793714E-003
-6.0254323E-001	1.880675322670292E-002
-6.6247362E-001	-2.686168237663593E-003
-6.1249667E-001	2.043454856366700E-002
-6.7254931E-001	-4.519949477885116E-003
-6.2249202E-001	1.896752212441673E-002
-6.8251407E-001	-1.269383637152621E-003
-6.3252944E-001	1.997233349462284E-002
-6.9250953E-001	-1.530634818041826E-003
-6.4247525E-001	2.096709734637681E-002
-7.0251638E-001	-4.941970734906043E-003
-6.5249735E-001	2.020344142740788E-002
-7.1250415E-001	-5.308473072976709E-004
-6.6246611E-001	2.198698244204644E-002
-7.2243851E-001	-4.152936875662389E-004
-6.7249584E-001	2.311739341453893E-002
-7.3246062E-001	-3.002684000660484E-003
-6.8251407E-001	1.936442384153211E-002
-7.4245608E-001	-6.403971409159378E-003
-6.9248277E-001	1.855554991083122E-002
-7.5242472E-001	-4.705839615206445E-003
-7.0248199E-001	1.823400967680894E-002
-7.6240486E-001	-5.640314423401020E-003
-7.1245837E-001	1.617414656854968E-002
-7.7245373E-001	-6.675270703884684E-003
-7.2247285E-001	1.881177685419586E-002
-7.8249115E-001	-8.649725653460921E-003
-7.3248351E-001	1.705838069871163E-002
-7.9244071E-001	-7.599697256840676E-003
-7.4247897E-001	1.533512842204221E-002
-8.0245519E-001	-5.504664928785614E-003
-7.5242472E-001	1.942973545948531E-002
-8.1243539E-001	-5.253462156887462E-003
-7.6245451E-001	2.110274692409133E-002
-8.2245749E-001	-4.630478977464679E-003
-7.7249575E-001	2.030894609388745E-002
-8.3245289E-001	1.619449699271507E-003
-7.8244919E-001	2.053502888271680E-002
-8.4242922E-001	-4.751056405534896E-003
-7.9243690E-001	1.611385641061994E-002
-8.5247803E-001	-3.359392130924364E-003
-8.0241704E-001	1.534015295634927E-002
-8.6245823E-001	-7.770260057632667E-004
-8.1245822E-001	2.014315118523020E-002
-8.7240016E-001	-1.997872226255776E-003
-8.2246512E-001	1.731963076408168E-002
-8.8244903E-001	9.562740354962622E-004
-8.3243382E-001	2.140921386154857E-002
-8.9244443E-001	7.015287989672381E-003
-8.4246743E-001	2.446384152005376E-002
-9.0251237E-001	2.373058407388988E-003
-8.5240936E-001	2.018836886916114E-002
-9.1250014E-001	-1.364840881203571E-003
-8.6248875E-001	1.996730976296882E-002
-9.2255282E-001	3.041258298636468E-003
-8.7243837E-001	1.591289475694985E-002
-9.3254441E-001	6.005452417364145E-003
-8.8245666E-001	2.157500893563813E-002
-9.4249785E-001	7.447357397483610E-003
-8.9246732E-001	2.191664486829387E-002
-9.5255053E-001	5.020737200634597E-003
-9.0253526E-001	2.788522623871501E-002
-9.6254593E-001	1.019551711827883E-002
-9.1256505E-001	1.893235379707460E-002
-9.7250694E-001	3.247244503367447E-003
-9.2250323E-001	1.891225714261002E-002
-9.8254055E-001	4.046069865389169E-003
-9.3252915E-001	2.134390241515477E-002
-9.9257797E-001	3.624048724592085E-003
-9.4254744E-001	2.077115933704921E-002
-1.0025160E+000	5.000640776894494E-003
-9.5249707E-001	2.113791548426409E-002
-1.0125649E+000	6.809301541675500E-003
-9.6249622E-001	2.148457545492993E-002
-1.0225068E+000	7.708608319501903E-003
-9.7253364E-001	2.185635679205389E-002
-1.0324641E+000	8.532553780241856E-003
-9.8247945E-001	1.920867773189550E-002
-1.0424480E+000	6.759060817880941E-003
-9.9247104E-001	2.375545113739602E-002
-1.0524855E+000	1.112496791450354E-002
-1.0025389E+000	1.966084190031611E-002
-1.0625076E+000	1.549112924342469E-003
-1.0125191E+000	1.963572215141826E-002
-1.0725451E+000	5.819562360748501E-003
-1.0225222E+000	2.085154356532976E-002
-1.0824412E+000	4.699197570804052E-003
-1.0324756E+000	2.567966445349154E-002
-1.0924480E+000	8.035171885000490E-003
-1.0425206E+000	2.401167744966712E-002
-1.1025159E+000	6.447569510400122E-003
-1.0524626E+000	2.597105933206251E-002
-1.1124960E+000	4.553499486830426E-003
-1.0624580E+000	2.440857827222265E-002
-1.1224495E+000	1.024575750642198E-002
-1.0724686E+000	2.573995289735888E-002