Ewe/V	<I>/mA	
1.2785159E+000	1.904905128479004E+001
1.3284738E+000	2.661253293355304E+001
1.2684900E+000	1.739929199218750E+001
1.3185282E+000	2.513467534383136E+001
1.2584984E+000	1.618374633789063E+001
1.3085365E+000	2.375779533386230E+001
1.2485220E+000	1.497813161214194E+001
1.2984953E+000	2.238333574930823E+001
1.2385229E+000	1.375914891560873E+001
1.2885036E+000	2.104070790608722E+001
1.2285579E+000	1.262509822845459E+001
1.2785274E+000	1.982401657104492E+001
1.2184709E+000	1.159100564320880E+001
1.2685472E+000	1.868283398946124E+001
1.2084945E+000	1.057168356577554E+001
1.2585328E+000	1.754292678833008E+001
1.1985221E+000	9.573372522989899E+000
1.2485678E+000	1.647801780700684E+001
1.1883931E+000	8.666233062744141E+000
1.2385877E+000	1.554617691040039E+001
1.1784282E+000	7.840462207794189E+000
1.2285389E+000	1.466284974416098E+001
1.1683717E+000	7.028443018595382E+000
1.2186084E+000	1.378779951731363E+001
1.1584183E+000	6.260736465454102E+000
1.2085824E+000	1.300302918752033E+001
1.1484497E+000	5.594771703084305E+000
1.1984992E+000	1.232089265187579E+001
1.1384008E+000	4.982032140096024E+000
1.1884580E+000	1.166396808624268E+001
1.1283939E+000	4.364709377288818E+000
1.1784817E+000	1.102092361450195E+001
1.1183603E+000	3.795774221420288E+000
1.1684824E+000	1.047223440806070E+001
1.1083764E+000	3.317756255467728E+000
1.1584604E+000	1.000911521911621E+001
1.0984191E+000	2.863931894302368E+000
1.1484802E+000	9.536444664001465E+000
1.0884123E+000	2.399920860926308E+000
1.1385114E+000	9.073579470316560E+000
1.0783710E+000	1.983660856882732E+000
1.1285237E+000	8.704307238260895E+000
1.0684137E+000	1.645202954610188E+000
1.1185169E+000	8.376417160034180E+000
1.0583650E+000	1.307126740614573E+000
1.1084565E+000	8.032356103261307E+000
1.0483810E+000	9.471489985783901E-001
1.0984688E+000	7.705868403116867E+000
1.0383818E+000	6.416708230972290E-001
1.0884924E+000	7.458200772603348E+000
1.0283825E+000	4.002425484359247E-001
1.0785238E+000	7.228869756062821E+000
1.0183756E+000	1.272350251674652E-001
1.0685130E+000	6.963502089182526E+000
1.0084567E+000	-1.657642324765525E-001
1.0584680E+000	6.731623967488602E+000
9.9840397E-001	-3.968783766031265E-001
1.0484879E+000	6.559720675150544E+000
9.8845053E-001	-5.792229721943536E-001
1.0385307E+000	6.393165588378906E+000
9.7845888E-001	-8.030789891878758E-001
1.0284895E+000	6.183443705240890E+000
9.6843296E-001	-1.050237337748211E+000
1.0185245E+000	6.011031786600739E+000
9.5841849E-001	-1.227743268013000E+000
1.0084796E+000	5.898849010467529E+000
9.4844216E-001	-1.376089255015057E+000
9.9854517E-001	5.768584728240967E+000
9.3843150E-001	-1.582754850387573E+000
9.8850781E-001	5.592988808949784E+000
9.2847806E-001	-1.785982648531597E+000
9.7849327E-001	5.473293145497635E+000
9.1842920E-001	-1.922995646794636E+000
9.6850175E-001	5.401093959808350E+000
9.0844142E-001	-2.056061585744224E+000
9.5849866E-001	5.294259389241532E+000
8.9844221E-001	-2.252030928929649E+000
9.4851089E-001	5.147950967152909E+000
8.8849646E-001	-2.427371978759766E+000
9.3852693E-001	5.060216426849365E+000
8.7843233E-001	-2.544775485992432E+000
9.2856586E-001	5.019978523254395E+000
8.6845601E-001	-2.678223212560020E+000
9.1854376E-001	4.924985885620117E+000
8.5848349E-001	-2.851399739583336E+000
9.0849113E-001	4.799815177917480E+000
8.4851867E-001	-3.011715253194176E+000
8.9854527E-001	4.743023713429764E+000
8.3847743E-001	-3.110782225926719E+000
8.8852698E-001	4.713608582814530E+000
8.2849729E-001	-3.231878519058228E+000
8.7850481E-001	4.621417840321854E+000
8.1848282E-001	-3.411803722381592E+000
8.6852092E-001	4.521714051564530E+000
8.0849117E-001	-3.547543525695801E+000
8.5849875E-001	4.489752769470215E+000
7.9848433E-001	-3.636169036229454E+000
8.4851861E-001	4.458428382873535E+000
7.8846985E-001	-3.761467377344772E+000
8.3856523E-001	4.367637952168778E+000
7.7840185E-001	-3.942156394322716E+000
8.2848966E-001	4.288562774658203E+000
7.6840270E-001	-4.068346182505294E+000
8.1852859E-001	4.273409684499100E+000
7.5836146E-001	-4.140163421630859E+000
8.0854082E-001	4.240812142690018E+000
7.4837750E-001	-4.273483673731484E+000
7.9851484E-001	4.154478152592979E+000
7.3837447E-001	-4.448570410410568E+000
7.8855002E-001	4.078076918919884E+000
7.2839814E-001	-4.554004192352295E+000
7.7844769E-001	4.055283625920616E+000
7.1842182E-001	-4.613852024078369E+000
7.6848286E-001	4.029307365417480E+000
7.0838821E-001	-4.751756191253662E+000
7.5848746E-001	3.934442361195885E+000
6.9841570E-001	-4.911435286204025E+000
7.4842715E-001	3.864917437235512E+000
6.8842798E-001	-4.997896194458008E+000
7.3845845E-001	3.872302770614624E+000
6.7845547E-001	-5.073533693949386E+000
7.2847831E-001	3.826589345932007E+000
6.6841805E-001	-5.216022014617920E+000
7.1845996E-001	3.726248741149902E+000
6.5837681E-001	-5.370225111643478E+000
7.0855236E-001	3.668056329091385E+000
6.4843488E-001	-5.448536713918045E+000
6.9850737E-001	3.672895272572831E+000
6.3847381E-001	-5.528758207956955E+000
6.8851191E-001	3.613302071889237E+000
6.2838298E-001	-5.676977157592773E+000
6.7847455E-001	3.498445351918534E+000
6.1842191E-001	-5.826086839040130E+000
6.6845244E-001	3.439488967259720E+000
6.0839212E-001	-5.904270966847733E+000
6.5846843E-001	3.434904893239334E+000
5.9845018E-001	-5.993533293406173E+000
6.4846921E-001	3.355829397837319E+000
5.8843946E-001	-6.154867649078369E+000
6.3850814E-001	3.234478712081909E+000
5.7838297E-001	-6.301813125610352E+000
6.2842494E-001	3.179724375406899E+000
5.6840670E-001	-6.374521732330322E+000
6.1847538E-001	3.149545749028526E+000
5.5843800E-001	-6.483011563618973E+000
6.0849142E-001	3.040291786193848E+000
5.4842728E-001	-6.657843112945557E+000
5.9843874E-001	2.913210789362587E+000
5.3840899E-001	-6.804533799489349E+000
5.8848912E-001	2.855018456776932E+000
5.2846324E-001	-6.881572087605804E+000
5.7851666E-001	2.801537513732910E+000
5.1843727E-001	-7.011835892995194E+000
5.6846780E-001	2.665161053339638E+000
5.0843424E-001	-7.207678476969406E+000
5.5848002E-001	2.521526336669922E+000
4.9847701E-001	-7.357425053914398E+000
5.4855329E-001	2.443469683329262E+000
4.8848543E-001	-7.442230542500809E+000
5.3849685E-001	2.358027458190918E+000
4.7846329E-001	-7.600635846455887E+000
5.2847087E-001	2.188289165496826E+000
4.6842206E-001	-7.818762143452972E+000
5.1849836E-001	2.019951502482094E+000
4.5846102E-001	-7.978058338165283E+000
5.0848007E-001	1.922794421513874E+000
4.4849995E-001	-8.095080216725663E+000
4.9853045E-001	1.789474089940388E+000
4.3846637E-001	-8.300472577412933E+000
4.8849303E-001	1.573894898096718E+000
4.2853591E-001	-8.536297798156738E+000
4.7852436E-001	1.380726774533589E+000
4.1852519E-001	-8.718387603759766E+000
4.6858242E-001	1.245114326477051E+000
4.0854508E-001	-8.879467328389495E+000
4.5847628E-001	1.064297656218210E+000
3.9851147E-001	-9.128663380940765E+000
4.4846177E-001	8.022411266962681E-001
3.8852751E-001	-9.406000455220550E+000
4.3847021E-001	5.746923486391697E-001
3.7845576E-001	-9.620178540547698E+000
4.2853969E-001	4.081373512744904E-001
3.6843744E-001	-9.836013158162444E+000
4.1852519E-001	1.715478176871936E-001
3.5836568E-001	-1.015549786885580E+001
4.0850306E-001	-1.346943537549427E-001
3.4838936E-001	-1.047421836853027E+001
3.9856109E-001	-3.990431030591335E-001
3.3840540E-001	-1.073423830668131E+001
3.8848934E-001	-6.192063887914028E-001
3.2840616E-001	-1.100750064849854E+001
3.7857029E-001	-9.213737249374390E-001
3.1842223E-001	-1.137550067901611E+001
3.6854053E-001	-1.278550148010254E+000
3.0841535E-001	-1.173433272043863E+001
3.5846111E-001	-1.596889138221741E+000
2.9844287E-001	-1.203293418884277E+001
3.4845808E-001	-1.886195739110313E+000
2.8843600E-001	-1.236795488993329E+001
3.3847412E-001	-2.253686189651489E+000
2.7839860E-001	-1.280624389648438E+001
3.2847109E-001	-2.657849550247192E+000
2.6844135E-001	-1.320671335856122E+001
3.1843749E-001	-2.999745766321823E+000
2.5841159E-001	-1.354568131764731E+001
3.0844209E-001	-3.344570398330688E+000
2.4841619E-001	-1.394398657480875E+001
2.9851541E-001	-3.762358665466309E+000
2.3843221E-001	-1.443741289774579E+001
2.8844747E-001	-4.212744712829590E+000
2.2846736E-001	-1.487009906768799E+001
2.7841386E-001	-4.595133463541671E+000
2.1847577E-001	-1.524051761627197E+001
2.6847956E-001	-4.972556114196777E+000
2.0850326E-001	-1.567626158396402E+001
2.5851467E-001	-5.429818471272796E+000
1.9852695E-001	-1.617401568094891E+001
2.4853455E-001	-5.882242202758789E+000
1.8844755E-001	-1.660479227701825E+001
2.3846276E-001	-6.252024491628006E+000
1.7851704E-001	-1.698157755533856E+001
2.2847882E-001	-6.634031613667815E+000
1.6847582E-001	-1.741197395324707E+001
2.1852158E-001	-7.083016713460296E+000
1.5850715E-001	-1.787980461120605E+001
2.0850328E-001	-7.504115422566741E+000
1.4845447E-001	-1.825086021423340E+001
1.9843151E-001	-7.834297021230057E+000
1.3843615E-001	-1.857709376017255E+001
1.8845138E-001	-8.178103446960449E+000
1.2851711E-001	-1.895757102966309E+001
1.7847505E-001	-8.582520484924316E+000
1.1847205E-001	-1.934912935892743E+001
1.6851400E-001	-8.923143704732269E+000
1.0849192E-001	-1.964289283752441E+001
1.5848805E-001	-9.164062817891448E+000
9.8469786E-002	-1.988024584452313E+001
1.4851937E-001	-9.426629066467285E+000
8.8478200E-002	-2.017757415771484E+001
1.3846669E-001	-9.734525998433440E+000
7.8414068E-002	-2.044765281677246E+001
1.2850946E-001	-9.940300305684417E+000
6.8487383E-002	-2.060045433044434E+001
1.1853314E-001	-1.007043743133545E+001
5.8484338E-002	-2.072931925455731E+001
1.0852628E-001	-1.023037052154541E+001
4.8454568E-002	-2.089752960205078E+001
9.8515607E-002	-1.040214633941650E+001
3.8443886E-002	-2.103225135803223E+001
8.8592738E-002	-1.047409152984619E+001
2.8490478E-002	-2.104141871134442E+001
7.8467518E-002	-1.048389561971030E+001
1.8456889E-002	-2.104944038391113E+001
6.8556108E-002	-1.053024609883627E+001
8.4882071E-003	-2.111119842529297E+001
5.8469065E-002	-1.057965278625488E+001
-1.4575673E-003	-2.111196327209473E+001
4.8477475E-002	-1.053483041127524E+001
-1.1510244E-002	-2.099697939554852E+001
3.8550790E-002	-1.043614578247070E+001
-2.1478925E-002	-2.090631675720215E+001
2.8540110E-002	-1.039399751027426E+001
-3.1546872E-002	-2.086773363749188E+001
1.8563792E-002	-1.034522755940756E+001
-4.1492645E-002	-2.075555102030438E+001
8.4996615E-003	-1.019458993275961E+001
-5.1522415E-002	-2.056314722696942E+001
-1.4117518E-003	-1.003287347157797E+001
-6.1556000E-002	-2.043581199645996E+001
-1.1502608E-002	-9.930367787679046E+000
-7.1539953E-002	-2.032019042968750E+001
-2.1486562E-002	-9.811182339986175E+000
-8.1619352E-002	-2.013326136271161E+001
-3.1409428E-002	-9.594202359517425E+000
-9.1603309E-002	-1.989119593302411E+001
-4.1446827E-002	-9.404599189758301E+000
-1.0163689E-001	-1.972056770324707E+001
-5.1510960E-002	-9.283885002136230E+000
-1.1156740E-001	-1.957043711344403E+001
-6.1617091E-002	-9.133502324422210E+000
-1.2153990E-001	-1.934963862101239E+001
-7.1570501E-002	-8.890800793965667E+000
-1.3160403E-001	-1.909687678019208E+001
-8.1539176E-002	-8.689865112304688E+000
-1.4158797E-001	-1.893057696024579E+001
-9.1599494E-002	-8.569150288899749E+000
-1.5156811E-001	-1.877802912394208E+001
-1.0157581E-001	-8.391517639160156E+000
-1.6154061E-001	-1.856104914347333E+001
-1.1145286E-001	-8.164478302001953E+000
-1.7153983E-001	-1.834050369262695E+001
-1.2155899E-001	-8.009383042653397E+000
-1.8155813E-001	-1.821584192911786E+001
-1.3153149E-001	-7.905477364857987E+000
-1.9151920E-001	-1.809398269653320E+001
-1.4150780E-001	-7.748345216115325E+000
-2.0154133E-001	-1.790068689982098E+001
-1.5149939E-001	-7.564345200856522E+000
-2.1152911E-001	-1.774877548217773E+001
-1.6155970E-001	-7.479030927022308E+000
-2.2151686E-001	-1.769580268859863E+001
-1.7145966E-001	-7.425931294759124E+000
-2.3158483E-001	-1.762462234497070E+001
-1.8152380E-001	-7.327755769093827E+000
-2.4153441E-001	-1.749512354532880E+001
-1.9147338E-001	-7.230598767598465E+000
-2.5158709E-001	-1.744406191507977E+001
-2.0148788E-001	-7.227415561676025E+000
-2.6155576E-001	-1.750556373596191E+001
-2.1147947E-001	-7.280896027882889E+000
-2.7155882E-001	-1.755980873107910E+001
-2.2147869E-001	-7.301906903584808E+000
-2.8153512E-001	-1.759966468811035E+001
-2.3151609E-001	-7.369903882344573E+000
-2.9154962E-001	-1.776660156250000E+001
-2.4145804E-001	-7.587138175964355E+000
-3.0153358E-001	-1.808188438415527E+001
-2.5148019E-001	-7.881283601125091E+000
-3.1154042E-001	-1.841868845621747E+001
-2.6146796E-001	-8.199622472127288E+000
-3.2157400E-001	-1.882539621988934E+001
-2.7149010E-001	-8.638548851013184E+000
-3.3146635E-001	-1.941407012939453E+001
-2.8146258E-001	-9.274462699890137E+000
-3.4154955E-001	-2.017337290445965E+001
-2.9141602E-001	-1.000664265950522E+001
-3.5149914E-001	-2.098208045959473E+001
-3.0146104E-001	-1.078988424936932E+001
-3.6150220E-001	-2.189520454406738E+001
-3.1150609E-001	-1.172198104858398E+001
-3.7157398E-001	-2.299131075541180E+001
-3.2156256E-001	-1.284444427490234E+001
-3.8153118E-001	-2.421984354654950E+001
-3.3150452E-001	-1.403172111511230E+001
-3.9145407E-001	-2.548097546895349E+001
-3.4148467E-001	-1.522892951965332E+001
-4.0154108E-001	-2.678629430135095E+001
-3.5148007E-001	-1.655538622538251E+001
-4.1144487E-001	-2.825638198852539E+001
-3.6151746E-001	-1.802432886759442E+001
-4.2148611E-001	-2.979472414652508E+001
-3.7142888E-001	-1.949263636271161E+001
-4.3145859E-001	-3.130314191182458E+001
-3.8151211E-001	-2.095801417032880E+001
-4.4141200E-001	-3.285651016235352E+001
-3.9142734E-001	-2.251647504170734E+001
-4.5148376E-001	-3.452842330932617E+001
-4.0144563E-001	-2.417553075154621E+001
-4.6148682E-001	-3.622899373372400E+001
-4.1149452E-001	-2.578925514221191E+001
-4.7150514E-001	-3.785519536336267E+001
-4.2150137E-001	-2.738286081949872E+001
-4.8151964E-001	-3.954175949096680E+001
-4.3153495E-001	-2.906076176961261E+001
-4.9159902E-001	-4.131108601888025E+001
-4.4145018E-001	-3.079812812805176E+001
-5.0159061E-001	-4.306156921386719E+001
-4.5147994E-001	-3.247208404541016E+001
-5.1155168E-001	-4.472189839680993E+001
-4.6148300E-001	-3.411242039998376E+001
-5.2157766E-001	-4.642220942179358E+001
-4.7145167E-001	-3.583514404296875E+001
-5.3152716E-001	-4.820287068684900E+001
-4.8158070E-001	-3.760510762532556E+001
-5.4154932E-001	-4.992648569742846E+001
-4.9153030E-001	-3.926072692871094E+001
-5.5159056E-001	-5.156949488321936E+001
-5.0156772E-001	-4.089444478352868E+001
-5.6155926E-001	-5.325529607137048E+001
-5.1152873E-001	-4.260481643676758E+001
-5.7155848E-001	-5.498616663614916E+001
-5.2157760E-001	-4.430461756388354E+001
-5.8149278E-001	-5.663643519083666E+001
-5.3151578E-001	-4.588727188110352E+001
-5.9148437E-001	-5.820393753051758E+001
-5.4156846E-001	-4.746164830525720E+001
-6.0155612E-001	-5.981447601318359E+001
-5.5154097E-001	-4.910516993204760E+001
-6.1163557E-001	-6.144768269856775E+001
-5.6156307E-001	-5.069418970743811E+001
-6.2153548E-001	-6.297418085734046E+001
-5.7153171E-001	-5.216402308146155E+001
-6.3148510E-001	-6.441791788736987E+001
-5.8161497E-001	-5.362686030069983E+001
-6.4155686E-001	-6.590494537353516E+001
-5.9157985E-001	-5.514507929484046E+001
-6.5153319E-001	-6.738585662841797E+001
-6.0149890E-001	-5.657225799560547E+001
-6.6162020E-001	-6.872669474283862E+001
-6.1163175E-001	-5.787082417805993E+001
-6.7156601E-001	-6.999724833170581E+001
-6.2156606E-001	-5.917907079060876E+001
-6.8154991E-001	-7.131084696451831E+001
-6.3151562E-001	-6.049050013224280E+001
-6.9154537E-001	-7.256459045410156E+001
-6.4154917E-001	-6.168949127197266E+001
-7.0150632E-001	-7.366629791259766E+001
-6.5151793E-001	-6.276586023966468E+001
-7.1160108E-001	-7.471427408854174E+001
-6.6152096E-001	-6.384337361653650E+001
-7.2159261E-001	-7.578185272216797E+001
-6.7155832E-001	-6.489797210693359E+001
-7.3151553E-001	-7.675304412841797E+001
-6.8150407E-001	-6.580549112955737E+001
-7.4155289E-001	-7.754786936442065E+001
-6.9160646E-001	-6.658147684733081E+001
-7.5142235E-001	-7.829775238037109E+001
-7.0151019E-001	-6.734624735514331E+001
-7.6152080E-001	-7.905399322509766E+001
-7.1151704E-001	-6.806276957194018E+001
-7.7150476E-001	-7.967259216308594E+001
-7.2145903E-001	-6.859477996826172E+001
-7.8149635E-001	-8.011673736572266E+001
-7.3143911E-001	-6.901103973388672E+001
-7.9146123E-001	-8.052675882975268E+001
-7.4156821E-001	-6.941341400146484E+001
-8.0150247E-001	-8.090494537353516E+001
-7.5152159E-001	-6.971558380126953E+001
-8.1149787E-001	-8.112141418457031E+001
-7.6151699E-001	-6.983375040690112E+001
-8.2151616E-001	-8.119336191813159E+001
-7.7148187E-001	-6.984826914469409E+001
-8.3150774E-001	-8.123907725016284E+001
-7.8146195E-001	-6.987118784586596E+001
-8.4146112E-001	-8.124849955240893E+001
-7.9158717E-001	-6.978116099039721E+001
-8.5152149E-001	-8.110409800211596E+001
-8.0149865E-001	-6.952330780029297E+001
-8.6146724E-001	-8.086267344156909E+001
-8.1145585E-001	-6.923450724283862E+001
-8.7156194E-001	-8.063996378580737E+001
-8.2155055E-001	-6.899550628662109E+001
-8.8148481E-001	-8.041190338134766E+001
-8.3153450E-001	-6.866965484619141E+001
-8.9153361E-001	-8.007408905029297E+001
-8.4152991E-001	-6.824408976236987E+001
-9.0168560E-001	-7.971741485595703E+001
-8.5147947E-001	-6.786004638671875E+001
-9.1165811E-001	-7.943358866373706E+001
-8.6152828E-001	-6.756399536132813E+001
-9.2152750E-001	-7.916274515787768E+001
-8.7142831E-001	-6.720873260498047E+001
-9.3169469E-001	-7.880760447184252E+001
-8.8149625E-001	-6.681564585367846E+001
-9.4166726E-001	-7.846507263183594E+001
-8.9151454E-001	-6.650125122070313E+001
-9.5148706E-001	-7.822911834716797E+001
-9.0156341E-001	-6.626746622721362E+001
-9.6154732E-001	-7.798297373453784E+001
-9.1153204E-001	-6.595613098144531E+001
-9.7158474E-001	-7.764388275146484E+001
-9.2163056E-001	-6.559806060791016E+001
-9.8153049E-001	-7.733700052897143E+001
-9.3156493E-001	-6.530913543701172E+001
-9.9156785E-001	-7.711544036865234E+001
-9.4151455E-001	-6.506592814127612E+001
-1.0015022E+000	-7.684497833251953E+001
-9.5154810E-001	-6.472377777099609E+001
-1.0115243E+000	-7.646335856119799E+001
-9.6160078E-001	-6.433030700683594E+001
-1.0215274E+000	-7.611406962076831E+001
-9.7157329E-001	-6.401616668701172E+001
-1.0316106E+000	-7.583164469401049E+001
-9.8162979E-001	-6.369464492797852E+001
-1.0416213E+000	-7.545842234293627E+001
-9.9152589E-001	-6.324948120117188E+001
-1.0515250E+000	-7.499377441406250E+001
-1.0015862E+000	-6.278330866495764E+001
-1.0615892E+000	-7.456286875406909E+001
-1.0115702E+000	-6.238130696614587E+001
-1.0714929E+000	-7.416762542724609E+001
-1.0215198E+000	-6.195053354899096E+001
-1.0814502E+000	-7.367254130045581E+001
-1.0315380E+000	-6.138872655232751E+001
-1.0915754E+000	-7.309481302897143E+001
-1.0415373E+000	-6.083138020833337E+001
-1.1015785E+000	-7.256905364990234E+001
-1.0516052E+000	-6.034674199422204E+001
-1.1115128E+000	-7.207345581054688E+001
-1.0616045E+000	-5.981116485595703E+001
-1.1215426E+000	-7.148211161295581E+001
-1.0714586E+000	-5.915780639648438E+001
-1.1314883E+000	-7.082468414306641E+001
-1.0815610E+000	-5.855028788248706E+001
-1.1416250E+000	-7.026465606689453E+001
-1.0915487E+000	-5.803279749552416E+001
-1.1515098E+000	-6.973302714029956E+001
-1.1015937E+000	-5.747009913126624E+001
-1.1614975E+000	-6.912768046061206E+001
-1.1114670E+000	-5.684895960489916E+001
-1.1714661E+000	-6.854001871744799E+001
-1.1215655E+000	-5.632229868570971E+001
-1.1815838E+000	-6.807792154947924E+001
-1.1315379E+000	-5.588757578531909E+001
-1.1915829E+000	-6.764281717936206E+001
-1.1415257E+000	-5.542534383138025E+001
-1.2015096E+000	-6.715129852294922E+001
-1.1515287E+000	-5.494783655802416E+001
-1.2115127E+000	-6.671746826171875E+001
-1.1615280E+000	-5.457856241861987E+001
-1.2214966E+000	-6.640256754557299E+001
-1.1715502E+000	-5.428212483723962E+001