Ewe/V	<I>/mA	
1.2785388E+000	1.987953567504883E+001
1.3285083E+000	2.686749029159546E+001
1.2684901E+000	1.856743717193604E+001
1.3184899E+000	2.541911125183105E+001
1.2585442E+000	1.743364095687866E+001
1.3085021E+000	2.395822191238403E+001
1.2485259E+000	1.622573566436768E+001
1.2985067E+000	2.254947614669800E+001
1.2384884E+000	1.516117691993713E+001
1.2885801E+000	2.125819730758667E+001
1.2285045E+000	1.406710982322693E+001
1.2785466E+000	1.992795419692993E+001
1.2185091E+000	1.306653833389282E+001
1.2685395E+000	1.878059673309326E+001
1.2085633E+000	1.211935281753540E+001
1.2585557E+000	1.759522962570190E+001
1.1985297E+000	1.118754243850708E+001
1.2485526E+000	1.654977226257324E+001
1.1884351E+000	1.038179469108582E+001
1.2385420E+000	1.554824590682983E+001
1.1784970E+000	9.541952848434448E+000
1.2285236E+000	1.458530187606812E+001
1.1684633E+000	8.836385965347290E+000
1.2185817E+000	1.376245951652527E+001
1.1584297E+000	8.115634560585022E+000
1.2085671E+000	1.290647768974304E+001
1.1484420E+000	7.479593157768250E+000
1.1984649E+000	1.219833230972290E+001
1.1384199E+000	6.899611473083496E+000
1.1884542E+000	1.147633910179138E+001
1.1284207E+000	6.299574017524719E+000
1.1784931E+000	1.086197686195374E+001
1.1184061E+000	5.828273057937622E+000
1.1684557E+000	1.028323650360107E+001
1.1084336E+000	5.303586602210999E+000
1.1584336E+000	9.721973657608032E+000
1.0984726E+000	4.891878843307495E+000
1.1484764E+000	9.270918846130371E+000
1.0884619E+000	4.454671978950500E+000
1.1384389E+000	8.769630193710327E+000
1.0784589E+000	4.053469538688660E+000
1.1284856E+000	8.396887063980103E+000
1.0684711E+000	3.724275112152100E+000
1.1184787E+000	7.983078122138977E+000
1.0584222E+000	3.340262711048126E+000
1.1084719E+000	7.636789202690125E+000
1.0484229E+000	3.066650211811066E+000
1.0984993E+000	7.319818854331970E+000
1.0384926E+000	2.720934092998505E+000
1.0884504E+000	6.974389195442200E+000
1.0284399E+000	2.462028920650482E+000
1.0784780E+000	6.741842508316040E+000
1.0184864E+000	2.189276009798050E+000
1.0685017E+000	6.427450656890869E+000
1.0084796E+000	1.904680997133255E+000
1.0585177E+000	6.224605441093445E+000
9.9841160E-001	1.702312856912613E+000
1.0484955E+000	5.978688120841980E+000
9.8839706E-001	1.418672770261765E+000
1.0385078E+000	5.752158164978027E+000
9.7841311E-001	1.247342690825462E+000
1.0285581E+000	5.591906309127808E+000
9.6844059E-001	1.000375315546989E+000
1.0185666E+000	5.360123634338379E+000
9.5845282E-001	8.031642585992813E-001
1.0084642E+000	5.241224050521851E+000
9.4849563E-001	6.255310848355293E-001
9.9851465E-001	5.032744050025940E+000
9.3843150E-001	3.953719660639763E-001
9.8851544E-001	4.911743044853210E+000
9.2844754E-001	2.630066124256700E-001
9.7852004E-001	4.774411678314209E+000
9.1847122E-001	3.084195125848055E-002
9.6848643E-001	4.612823009490967E+000
9.0846056E-001	-9.827635357214604E-002
9.5850253E-001	4.535370945930481E+000
8.9848042E-001	-2.831676686182618E-001
9.4859487E-001	4.370439410209656E+000
8.8851172E-001	-4.610873349010944E-001
9.3850404E-001	4.318773031234741E+000
8.7849724E-001	-5.781724378466606E-001
9.2852771E-001	4.190036833286285E+000
8.6850178E-001	-7.847425937652588E-001
9.1850561E-001	4.107236981391907E+000
8.5852170E-001	-8.795757889747620E-001
9.0855217E-001	4.044683396816254E+000
8.4850335E-001	-1.076786786317825E+000
8.9850330E-001	3.922727584838867E+000
8.3851182E-001	-1.195781931281090E+000
8.8854611E-001	3.905728399753571E+000
8.2852405E-001	-1.329006791114807E+000
8.7850487E-001	3.780907571315765E+000
8.1848663E-001	-1.511415094137192E+000
8.6849034E-001	3.764863431453705E+000
8.0845678E-001	-1.594883531332016E+000
8.5856366E-001	3.692855060100555E+000
7.9851109E-001	-1.788178920745850E+000
8.4855682E-001	3.621419727802277E+000
7.8843546E-001	-1.869928419589996E+000
8.3850032E-001	3.617790758609772E+000
7.7837133E-001	-2.040207982063293E+000
8.2856596E-001	3.521143019199371E+000
7.6844084E-001	-2.164837628602982E+000
8.1850952E-001	3.537569165229797E+000
7.5838435E-001	-2.260148316621780E+000
8.0857903E-001	3.452286243438721E+000
7.4842328E-001	-2.436158120632172E+000
7.9854923E-001	3.435573518276215E+000
7.3843175E-001	-2.495464622974396E+000
7.8859586E-001	3.418383181095123E+000
7.2840959E-001	-2.673288702964783E+000
7.7846295E-001	3.328515946865082E+000
7.1847910E-001	-2.751695692539215E+000
7.6843703E-001	3.357166588306427E+000
7.0841879E-001	-2.873651325702667E+000
7.5846452E-001	3.265771448612213E+000
6.9841570E-001	-3.013561367988586E+000
7.4846530E-001	3.287259161472321E+000
6.8836689E-001	-3.070480227470398E+000
7.3845845E-001	3.232632398605347E+000
6.7839432E-001	-3.243911445140839E+000
7.2846687E-001	3.201212167739868E+000
6.6842568E-001	-3.290993750095367E+000
7.1847904E-001	3.211621880531311E+000
6.5840358E-001	-3.445897400379181E+000
7.0845693E-001	3.125956833362579E+000
6.4846927E-001	-3.539298295974731E+000
6.9845009E-001	3.158427298069000E+000
6.3848525E-001	-3.622671186923981E+000
6.8848139E-001	3.070279300212860E+000
6.2844783E-001	-3.788175642490387E+000
6.7840964E-001	3.075436413288116E+000
6.1844867E-001	-3.831628859043121E+000
6.6851729E-001	3.041437923908234E+000
6.0842270E-001	-4.004678130149841E+000
6.5847993E-001	2.973154067993164E+000
5.9848070E-001	-4.063220500946045E+000
6.4849979E-001	2.996456444263458E+000
5.8843952E-001	-4.187277138233185E+000
6.3843566E-001	2.888444006443024E+000
5.7842880E-001	-4.313817024230957E+000
6.2850899E-001	2.912319540977478E+000
5.6841433E-001	-4.374556064605713E+000
6.1854410E-001	2.826463401317596E+000
5.5845326E-001	-4.550852298736572E+000
6.0843414E-001	2.791223287582397E+000
5.4842734E-001	-4.590867400169373E+000
5.9847695E-001	2.767252385616302E+000
5.3851974E-001	-4.756562948226929E+000
5.8847004E-001	2.652936875820160E+000
5.2845180E-001	-4.843660593032837E+000
5.7850522E-001	2.667166531085968E+000
5.1849073E-001	-4.948616862297058E+000
5.6856704E-001	2.534992218017578E+000
5.0849533E-001	-5.107531785964966E+000
5.5848765E-001	2.518088459968567E+000
4.9854574E-001	-5.163686871528625E+000
5.4841590E-001	2.428985297679901E+000
4.8852360E-001	-5.356982111930847E+000
5.3852355E-001	2.325365960597992E+000
4.7849000E-001	-5.422305345535278E+000
5.2850902E-001	2.297288477420807E+000
4.6849841E-001	-5.587618827819824E+000
5.1851743E-001	2.142480194568634E+000
4.5847246E-001	-5.726669192314148E+000
5.0853348E-001	2.109723120927811E+000
4.4852287E-001	-5.828187584877014E+000
4.9850756E-001	1.950426250696182E+000
4.3847021E-001	-6.048223495483398E+000
4.8855412E-001	1.858553647994995E+000
4.2847097E-001	-6.131691932678223E+000
4.7854343E-001	1.749586254358292E+000
4.1854429E-001	-6.360514283180237E+000
4.6857095E-001	1.574054062366486E+000
4.0852597E-001	-6.493547677993774E+000
4.5845720E-001	1.499371707439423E+000
3.9853820E-001	-6.678056955337524E+000
4.4853431E-001	1.285638898611069E+000
3.8851988E-001	-6.904778122901917E+000
4.3852746E-001	1.184884577989578E+000
3.7850922E-001	-7.034087419509888E+000
4.2853588E-001	9.897745847702026E-001
3.6852527E-001	-7.312952399253845E+000
4.1856721E-001	8.057428449392319E-001
3.5841149E-001	-7.481131076812744E+000
4.0852597E-001	6.598162055015564E-001
3.4840846E-001	-7.754265904426575E+000
3.9847711E-001	3.963269963860512E-001
3.3842832E-001	-7.988913536071777E+000
3.8855806E-001	2.545069623738527E-001
3.2845581E-001	-8.207230567932129E+000
3.7851301E-001	-2.493103500455618E-002
3.1843367E-001	-8.533750772476196E+000
3.6852527E-001	-2.203275300562382E-001
3.0844590E-001	-8.733636140823364E+000
3.5838094E-001	-4.739800542593002E-001
2.9848105E-001	-9.082789897918701E+000
3.4846571E-001	-7.661197632551193E-001
2.8842455E-001	-9.327656507492065E+000
3.3840540E-001	-9.618027806282043E-001
2.7846730E-001	-9.632401943206787E+000
3.2850543E-001	-1.295008182525635E+000
2.6848719E-001	-9.966753959655762E+000
3.1843370E-001	-1.513993591070175E+000
2.5843066E-001	-1.023339462280273E+001
3.0844209E-001	-1.831632256507874E+000
2.4844290E-001	-1.062982225418091E+001
2.9849249E-001	-2.119856476783752E+000
2.3845513E-001	-1.088624453544617E+001
2.8848946E-001	-2.379334568977356E+000
2.2843300E-001	-1.126404905319214E+001
2.7847114E-001	-2.734027922153473E+000
2.1842995E-001	-1.156401991844177E+001
2.6848337E-001	-2.957597374916077E+000
2.0851855E-001	-1.186303567886353E+001
2.5848794E-001	-3.300830364227295E+000
1.9848877E-001	-1.222632431983948E+001
2.4845053E-001	-3.533377051353455E+000
1.8842465E-001	-1.244979834556580E+001
2.3846278E-001	-3.810140907764435E+000
1.7844833E-001	-1.280239057540894E+001
2.2847880E-001	-4.091775536537170E+000
1.6848347E-001	-1.300561809539795E+001
2.1851395E-001	-4.275998353958130E+000
1.5852624E-001	-1.328133177757263E+001
2.0846510E-001	-4.569284081459045E+000
1.4849646E-001	-1.351292347908020E+001
1.9845824E-001	-4.709671616554260E+000
1.3847815E-001	-1.366639399528503E+001
1.8846664E-001	-4.942218303680420E+000
1.2850183E-001	-1.391164302825928E+001
1.7857814E-001	-5.075347542762756E+000
1.1850259E-001	-1.398240947723389E+001
1.6851400E-001	-5.191286802291870E+000
1.0852247E-001	-1.415755963325500E+001
1.5845370E-001	-5.341415405273438E+000
9.8462150E-002	-1.420330452919006E+001
1.4851555E-001	-5.351825118064880E+000
8.8566013E-002	-1.425134229660034E+001
1.3847052E-001	-5.468336939811707E+000
7.8547694E-002	-1.431083917617798E+001
1.2853619E-001	-5.434338569641113E+000
6.8556100E-002	-1.424055027961731E+001
1.1849114E-001	-5.464517116546631E+000
5.8480520E-002	-1.428667831420898E+001
1.0843847E-001	-5.447708725929260E+000
4.8446931E-002	-1.417092943191528E+001
9.8523244E-002	-5.362998723983765E+000
3.8527884E-002	-1.413931894302368E+001
8.8539287E-002	-5.372071385383606E+000
2.8490476E-002	-1.403780031204224E+001
7.8517154E-002	-5.227386474609375E+000
1.8563792E-002	-1.390199685096741E+001
6.8491206E-002	-5.196252822875977E+000
8.4271198E-003	-1.383877491950989E+001
5.8560699E-002	-5.058348298072815E+000
-1.4842930E-003	-1.363163185119629E+001
4.8515655E-002	-4.954442381858826E+000
-1.1441520E-002	-1.355675864219666E+001
3.8588967E-002	-4.868204355239868E+000
-2.1509467E-002	-1.335362625122070E+001
2.8578291E-002	-4.688374638557434E+000
-3.1478148E-002	-1.322364878654480E+001
1.8613426E-002	-4.629258990287781E+000
-4.1500282E-002	-1.308096861839294E+001
8.5492944E-003	-4.444558858871460E+000
-5.1499508E-002	-1.287630891799927E+001
-1.4842930E-003	-4.363764405250549E+000
-6.1605632E-002	-1.280449151992798E+001
-1.1384251E-002	-4.218697309494019E+000
-7.1528502E-002	-1.257672023773193E+001
-2.1456016E-002	-4.074776232242584E+000
-8.1569716E-002	-1.248293733596802E+001
-3.1501058E-002	-3.997515320777893E+000
-9.1561310E-002	-1.230339431762695E+001
-4.1454464E-002	-3.816539525985718E+000
-1.0158344E-001	-1.216071486473084E+001
-5.1518597E-002	-3.766878664493561E+000
-1.1157503E-001	-1.207170724868774E+001
-6.1582725E-002	-3.616559028625488E+000
-1.2152080E-001	-1.187583327293396E+001
-7.1616314E-002	-3.544741749763489E+000
-1.3153531E-001	-1.182569479942322E+001
-8.1523903E-002	-3.453728675842285E+000
-1.4152689E-001	-1.165331411361694E+001
-9.1507860E-002	-3.328812420368195E+000
-1.5164065E-001	-1.160546708106995E+001
-1.0156436E-001	-3.314487218856812E+000
-1.6154824E-001	-1.150566887855530E+001
-1.1154068E-001	-3.180975794792175E+000
-1.7162764E-001	-1.141159915924072E+001
-1.2152845E-001	-3.182503759860992E+000
-1.8157344E-001	-1.140462779998779E+001
-1.3150476E-001	-3.101422905921936E+000
-1.9159174E-001	-1.128505921363831E+001
-1.4151545E-001	-3.063604176044464E+000
-2.0160240E-001	-1.131590628623962E+001
-1.5150322E-001	-3.071912944316864E+000
-2.1159783E-001	-1.125497651100159E+001
-1.6157879E-001	-3.007831275463104E+000
-2.2158942E-001	-1.128601455688477E+001
-1.7147493E-001	-3.078884541988373E+000
-2.3156573E-001	-1.134035491943359E+001
-1.8158869E-001	-3.059784114360809E+000
-2.4148096E-001	-1.137005615234375E+001
-1.9151539E-001	-3.171903014183044E+000
-2.5157562E-001	-1.157070517539978E+001
-2.0159477E-001	-3.275331497192383E+000
-2.6159394E-001	-1.169514369964600E+001
-2.1151765E-001	-3.420589566230774E+000
-2.7152064E-001	-1.202233242988586E+001
-2.2152451E-001	-3.707285702228546E+000
-2.8147787E-001	-1.235104942321777E+001
-2.3155428E-001	-3.962370693683624E+000
-2.9154199E-001	-1.280697488784790E+001
-2.4154969E-001	-4.443221688270569E+000
-3.0155265E-001	-1.343623518943787E+001
-2.5149164E-001	-4.917960882186890E+000
-3.1154042E-001	-1.407342243194580E+001
-2.6155958E-001	-5.573006987571716E+000
-3.2158166E-001	-1.497362136840820E+001
-2.7160844E-001	-6.352014422416687E+000
-3.3150834E-001	-1.586818552017212E+001
-2.8155041E-001	-7.167216777801514E+000
-3.4148467E-001	-1.697285413742065E+001
-2.9150000E-001	-8.217735528945923E+000
-3.5148007E-001	-1.815277767181396E+001
-3.0146867E-001	-9.236739397048950E+000
-3.6149076E-001	-1.937376737594604E+001
-3.1152135E-001	-1.045562696456909E+001
-3.7145942E-001	-2.080065822601318E+001
-3.2150912E-001	-1.169189667701721E+001
-3.8150066E-001	-2.215057516098022E+001
-3.3152360E-001	-1.299559068679810E+001
-3.9149988E-001	-2.368948888778687E+001
-3.4146938E-001	-1.443909955024719E+001
-4.0144566E-001	-2.518256330490112E+001
-3.5157168E-001	-1.579722809791565E+001
-4.1147923E-001	-2.674611711502075E+001
-3.6148313E-001	-1.735361957550049E+001
-4.2152426E-001	-2.839065551757813E+001
-3.7156248E-001	-1.882014417648315E+001
-4.3144715E-001	-2.994389581680298E+001
-3.8147774E-001	-2.038417482376099E+001
-4.4147307E-001	-3.166970634460449E+001
-3.9153424E-001	-2.197351503372192E+001
-4.5144176E-001	-3.325073814392090E+001
-4.0144184E-001	-2.350115966796875E+001
-4.6146771E-001	-3.495716285705566E+001
-4.1147923E-001	-2.518055677413940E+001
-4.7146693E-001	-3.660838603973389E+001
-4.2156243E-001	-2.670810747146606E+001
-4.8156545E-001	-3.824337673187256E+001
-4.3148151E-001	-2.836534929275513E+001
-4.9164486E-001	-3.995877647399902E+001
-4.4154945E-001	-2.993491888046265E+001
-5.0155246E-001	-4.150256252288818E+001
-4.5143798E-001	-3.151508855819702E+001
-5.1164329E-001	-4.319055366516113E+001
-4.6147919E-001	-3.313317584991455E+001
-5.2151650E-001	-4.472622203826904E+001
-4.7150895E-001	-3.462328815460205E+001
-5.3155392E-001	-4.629875087738037E+001
-4.8154634E-001	-3.625302410125732E+001
-5.4161042E-001	-4.785218524932861E+001
-4.9156851E-001	-3.769042110443115E+001
-5.5157149E-001	-4.927783203125000E+001
-5.0157535E-001	-3.920269107818604E+001
-5.6160885E-001	-5.081073188781738E+001
-5.1151729E-001	-4.063091850280762E+001
-5.7155466E-001	-5.213209152221680E+001
-5.2150887E-001	-4.198398685455322E+001
-5.8153862E-001	-5.353606224060059E+001
-5.3162265E-001	-4.339540672302246E+001
-5.9156835E-001	-5.479936122894287E+001
-5.4150349E-001	-4.459834575653076E+001
-6.0153323E-001	-5.601089668273926E+001
-5.5152184E-001	-4.589716911315918E+001
-6.1161643E-001	-5.722577285766602E+001
-5.6158215E-001	-4.700642204284668E+001
-6.2160420E-001	-5.823245620727539E+001
-5.7151645E-001	-4.810908412933350E+001
-6.3162249E-001	-5.931229209899902E+001
-5.8159965E-001	-4.914203071594238E+001
-6.4158738E-001	-6.017066192626953E+001
-5.9155691E-001	-5.000250148773193E+001
-6.5159422E-001	-6.102941417694092E+001
-6.0154086E-001	-5.091568851470947E+001
-6.6157061E-001	-6.175761604309082E+001
-6.1152864E-001	-5.156863307952881E+001
-6.7152780E-001	-6.232909679412842E+001
-6.2153167E-001	-5.224287509918213E+001
-6.8151939E-001	-6.290114784240723E+001
-6.3156903E-001	-5.272028732299805E+001
-6.9162548E-001	-6.320455741882324E+001
-6.4159125E-001	-5.308797073364258E+001
-7.0150256E-001	-6.353327846527100E+001
-6.5155226E-001	-5.338297462463379E+001
-7.1151710E-001	-6.360938835144043E+001
-6.6152096E-001	-5.341181564331055E+001
-7.2150862E-001	-6.361225605010986E+001
-6.7153925E-001	-5.344963359832764E+001
-7.3147351E-001	-6.348829841613770E+001
-6.8155378E-001	-5.320123767852783E+001
-7.4147272E-001	-6.314811992645264E+001
-6.9153386E-001	-5.290833187103271E+001
-7.5147957E-001	-6.282321929931641E+001
-7.0155221E-001	-5.243473720550537E+001
-7.6154375E-001	-6.221602153778076E+001
-7.1149033E-001	-5.179850387573242E+001
-7.7153152E-001	-6.164014625549316E+001
-7.2150481E-001	-5.115348625183105E+001
-7.8161091E-001	-6.090373325347900E+001
-7.3145819E-001	-5.029072570800781E+001
-7.9142690E-001	-6.011708545684814E+001
-7.4146134E-001	-4.951219463348389E+001
-8.0155212E-001	-5.937637615203857E+001
-7.5162470E-001	-4.860626602172852E+001
-8.1155890E-001	-5.849355697631836E+001
-7.6152462E-001	-4.776250839233398E+001
-8.2148945E-001	-5.778407573699951E+001
-7.7153909E-001	-4.695809745788574E+001
-8.3154213E-001	-5.696247482299805E+001
-7.8150016E-001	-4.610288047790527E+001
-8.4153372E-001	-5.628145122528076E+001
-7.9148418E-001	-4.544563770294189E+001
-8.5152531E-001	-5.561379814147949E+001
-8.0149478E-001	-4.466920661926270E+001
-8.6156267E-001	-5.492857456207275E+001
-8.1144440E-001	-4.407509040832520E+001
-8.7147409E-001	-5.440322017669678E+001
-8.2152766E-001	-4.344707298278809E+001
-8.8143897E-001	-5.374712371826172E+001
-8.3149630E-001	-4.285056972503662E+001
-8.9153749E-001	-5.327477169036865E+001
-8.4149933E-001	-4.235147666931152E+001
-9.0161687E-001	-5.271532058715820E+001
-8.5155207E-001	-4.173472595214844E+001
-9.1160846E-001	-5.220085334777832E+001
-8.6150545E-001	-4.128615665435791E+001
-9.2155808E-001	-5.172869396209717E+001
-8.7156576E-001	-4.070970821380615E+001
-9.3160307E-001	-5.115625858306885E+001
-8.8144284E-001	-4.023812103271484E+001
-9.4157177E-001	-5.074120521545410E+001
-8.9154893E-001	-3.974294281005859E+001
-9.5155573E-001	-5.015511131286621E+001
-9.0153289E-001	-3.920670223236084E+001
-9.6154350E-001	-4.970692157745361E+001
-9.1159695E-001	-3.877933025360107E+001
-9.7151983E-001	-4.918128108978271E+001
-9.2154664E-001	-3.819820404052734E+001
-9.8154956E-001	-4.865564060211182E+001
-9.3157631E-001	-3.776405143737793E+001
-9.9148774E-001	-4.821470928192139E+001
-9.4153357E-001	-3.722446727752686E+001
-1.0015709E+000	-4.762737369537354E+001
-9.5156336E-001	-3.674113464355469E+001
-1.0115319E+000	-4.721175003051758E+001
-9.6158552E-001	-3.629428195953369E+001
-1.0215007E+000	-4.665745830535889E+001
-9.7156566E-001	-3.575660610198975E+001
-1.0316411E+000	-4.621518802642822E+001
-9.8159921E-001	-3.538415050506592E+001
-1.0416251E+000	-4.577148818969727E+001
-9.9159467E-001	-3.487952041625977E+001
-1.0515137E+000	-4.528834629058838E+001
-1.0015671E+000	-3.453103351593018E+001
-1.0615435E+000	-4.497232913970947E+001
-1.0116122E+000	-3.414014434814453E+001
-1.0714968E+000	-4.453082561492920E+001
-1.0214893E+000	-3.378994178771973E+001
-1.0815648E+000	-4.429102134704590E+001
-1.0314693E+000	-3.356751728057861E+001
-1.0914953E+000	-4.398570251464844E+001
-1.0416366E+000	-3.324204921722412E+001
-1.1015594E+000	-4.376518821716309E+001
-1.0515097E+000	-3.312505722045898E+001
-1.1115204E+000	-4.362881374359131E+001
-1.0614747E+000	-3.290769481658936E+001
-1.1215311E+000	-4.342252826690674E+001
-1.0714778E+000	-3.281429386138916E+001
-1.1315303E+000	-4.339559650421143E+001
-1.0814846E+000	-3.273034954071045E+001
-1.1415524E+000	-4.321939849853516E+001
-1.0915411E+000	-3.258461284637451E+001
-1.1515479E+000	-4.317460536956787E+001
-1.1014868E+000	-3.257630443572998E+001
-1.1615623E+000	-4.305522918701172E+001
-1.1115280E+000	-3.239962577819824E+001
-1.1715387E+000	-4.290806198120117E+001
-1.1214776E+000	-3.234853267669678E+001
-1.1815838E+000	-4.284063720703125E+001
-1.1314883E+000	-3.218388748168945E+001
-1.1915143E+000	-4.260818576812744E+001
-1.1415677E+000	-3.203308963775635E+001
-1.2015669E+000	-4.251497650146484E+001
-1.1514677E+000	-3.189556646347046E+001
-1.2114936E+000	-4.225444698333740E+001
-1.1614746E+000	-3.163589811325073E+001
-1.2214737E+000	-4.207404518127441E+001
-1.1714013E+000	-3.149799346923828E+001