Ewe/V	<I>/mA	
1.2788124E+000	1.887982177734375E+001
1.3287895E+000	2.493777186312576E+001
1.2687712E+000	1.721725274146871E+001
1.3188093E+000	2.303943944991897E+001
1.2588445E+000	1.572184251978041E+001
1.3087643E+000	2.134320471641864E+001
1.2487575E+000	1.442609842026488E+001
1.2987077E+000	1.981919496110145E+001
1.2388117E+000	1.326868948530642E+001
1.2888575E+000	1.843667969297856E+001
1.2288201E+000	1.222741508483887E+001
1.2787590E+000	1.713045941515168E+001
1.2188820E+000	1.127928421345163E+001
1.2688055E+000	1.592703761699349E+001
1.2087492E+000	1.042052171585408E+001
1.2588407E+000	1.481166610058312E+001
1.1988033E+000	9.653687461893609E+000
1.2488147E+000	1.378981905795155E+001
1.1887583E+000	8.942257685864220E+000
1.2388040E+000	1.282853008077500E+001
1.1787170E+000	8.299226677164114E+000
1.2288315E+000	1.193949610628979E+001
1.1687217E+000	7.721558650757395E+000
1.2187788E+000	1.111818566981776E+001
1.1587300E+000	7.192468876534306E+000
1.2087530E+000	1.036652549784235E+001
1.1487194E+000	6.713741060267097E+000
1.1987919E+000	9.664168659676875E+000
1.1387926E+000	6.275418876333433E+000
1.1887392E+000	9.020087046826134E+000
1.1287363E+000	5.869570903321517E+000
1.1787399E+000	8.438766629137874E+000
1.1187217E+000	5.502169766324641E+000
1.1687675E+000	7.897775349464808E+000
1.1087110E+000	5.164426902507209E+000
1.1587186E+000	7.408852385713701E+000
1.0987500E+000	4.855087857297121E+000
1.1486583E+000	6.958418551911691E+000
1.0887737E+000	4.565663758744584E+000
1.1387889E+000	6.542718099786867E+000
1.0787172E+000	4.296678111908282E+000
1.1288469E+000	6.156799299919859E+000
1.0686759E+000	4.049499826228370E+000
1.1187446E+000	5.800739536894127E+000
1.0587341E+000	3.819896300422386E+000
1.1087568E+000	5.468321763454600E+000
1.0487691E+000	3.602344180675246E+000
1.0987614E+000	5.162308842577815E+000
1.0387509E+000	3.398575743462178E+000
1.0887928E+000	4.872477579624093E+000
1.0287859E+000	3.206774448460720E+000
1.0787401E+000	4.602251443457092E+000
1.0188173E+000	3.027732316483842E+000
1.0688057E+000	4.348783616055826E+000
1.0087340E+000	2.859210287636895E+000
1.0587608E+000	4.110885088748120E+000
9.9870044E-001	2.697412079953125E+000
1.0487691E+000	3.884203200644635E+000
9.8878902E-001	2.543674916028976E+000
1.0387738E+000	3.667844652495475E+000
9.7873634E-001	2.397855250759328E+000
1.0287516E+000	3.465244088401182E+000
9.6882111E-001	2.258723024358140E+000
1.0188326E+000	3.272006323997008E+000
9.5874172E-001	2.126061642423590E+000
1.0087913E+000	3.087477360000001E+000
9.4887227E-001	2.001118183453032E+000
9.9878061E-001	2.913874255215859E+000
9.3878907E-001	1.880813035559143E+000
9.8870885E-001	2.749160329078101E+000
9.2880130E-001	1.768161365326414E+000
9.7876686E-001	2.591910891710441E+000
9.1890901E-001	1.659903836694163E+000
9.6890134E-001	2.441307112257530E+000
9.0881813E-001	1.556258111241014E+000
9.5887154E-001	2.298540156572422E+000
8.9885706E-001	1.458254887702608E+000
9.4877690E-001	2.160353172966774E+000
8.8878912E-001	1.363482613512808E+000
9.3881959E-001	2.030882386451070E+000
8.7874788E-001	1.275314410633229E+000
9.2875165E-001	1.907972444245155E+000
8.6885560E-001	1.190451862647178E+000
9.1881734E-001	1.790770055131709E+000
8.5879904E-001	1.109282046873517E+000
9.0874940E-001	1.678086013552990E+000
8.4884185E-001	1.033128995052042E+000
8.9883417E-001	1.571799085812366E+000
8.3888084E-001	9.615184395237169E-001
8.8878912E-001	1.470134487494509E+000
8.2892358E-001	8.928242083242566E-001
8.7879759E-001	1.373312234561494E+000
8.1888622E-001	8.276359662413579E-001
8.6883652E-001	1.280076301478321E+000
8.0879158E-001	7.665449230277783E-001
8.5883349E-001	1.192298736661037E+000
7.9877704E-001	7.088037521598167E-001
8.4878463E-001	1.109043491013506E+000
7.8883886E-001	6.552089344947891E-001
8.3878535E-001	1.029988675358446E+000
7.7873272E-001	6.028236864095033E-001
8.2880908E-001	9.560053467433498E-001
7.6870680E-001	5.548393669280598E-001
8.1885946E-001	8.849870567309095E-001
7.5876486E-001	5.097429031070240E-001
8.0885643E-001	8.186686817318822E-001
7.4873519E-001	4.662358335992121E-001
7.9888391E-001	7.568320844401697E-001
7.3877794E-001	4.269715109245578E-001
7.8884268E-001	6.976968335344420E-001
7.2866791E-001	3.896578084281153E-001
7.7874041E-001	6.412789653590387E-001
7.1871841E-001	3.542496473231216E-001
7.6874119E-001	5.889392967553846E-001
7.0870382E-001	3.211706380577786E-001
7.5878775E-001	5.405089211590748E-001
6.9869316E-001	2.910015381317814E-001
7.4875039E-001	4.948416972889542E-001
6.8872833E-001	2.622293898479096E-001
7.3869395E-001	4.515973044202682E-001
6.7873287E-001	2.351690954429673E-001
7.2880536E-001	4.113217950501338E-001
6.6879481E-001	2.102963832860931E-001
7.1877944E-001	3.741949328241185E-001
6.5874588E-001	1.873397590949177E-001
7.0870382E-001	3.391018196781899E-001
6.4878106E-001	1.656090772730556E-001
6.9865501E-001	3.064519376989372E-001
6.3870549E-001	1.460098032146058E-001
6.8877792E-001	2.763757207133661E-001
6.2872148E-001	1.283784320855395E-001
6.7875582E-001	2.485776188922051E-001
6.1870325E-001	1.118788653192050E-001
6.6877180E-001	2.232397317965613E-001
6.0872310E-001	9.697998710412570E-002
6.5876502E-001	1.998528762462919E-001
5.9884596E-001	8.385973672402325E-002
6.4881539E-001	1.786619520330044E-001
5.8875519E-001	7.242049993154534E-002
6.3875896E-001	1.592914714339249E-001
5.7888192E-001	6.219349990777179E-002
6.2882072E-001	1.419589930669742E-001
5.6879485E-001	5.250373357371918E-002
6.1883307E-001	1.263167548409485E-001
5.5875361E-001	4.388427605497669E-002
6.0873836E-001	1.119814696820807E-001
5.4873151E-001	3.692220214771674E-002
5.9880781E-001	9.922958328884002E-002
5.3886974E-001	3.035423792380243E-002
5.8873224E-001	8.801940512506579E-002
5.2877510E-001	2.414697331790949E-002
5.7885516E-001	7.791784176840744E-002
5.1880252E-001	1.938591909156263E-002
5.6869179E-001	6.986620263295605E-002
5.0884539E-001	1.381189065303723E-002
5.5874985E-001	6.299908307103563E-002
4.9886140E-001	8.865858141844180E-003
5.4867804E-001	5.669891953646666E-002
4.8880488E-001	3.569496793367781E-003
5.3878576E-001	5.166838799623086E-002
4.7873691E-001	-1.018110083950500E-003
5.2879798E-001	4.741113389807528E-002
4.6892095E-001	-5.750432987390912E-003
5.1882923E-001	4.399072132141446E-002
4.5881870E-001	-1.070197252390265E-002
5.0880331E-001	4.094820063929025E-002
4.4879651E-001	-1.546206173517278E-002
4.9880794E-001	3.843702369438184E-002
4.3887743E-001	-2.076370624330053E-002
4.8877051E-001	3.598819557254640E-002
4.2877516E-001	-2.571751144600098E-002
4.7881332E-001	3.381307371917963E-002
4.1885233E-001	-3.065951071143075E-002
4.6876821E-001	3.111240980577815E-002
4.0881872E-001	-3.607916357655194E-002
4.5885691E-001	2.962968489215741E-002
3.9884999E-001	-4.049928825824806E-002
4.4881561E-001	2.696425202304176E-002
3.8888898E-001	-4.478401171624502E-002
4.3883544E-001	2.458622923611670E-002
3.7884009E-001	-4.895818760826631E-002
4.2888969E-001	2.207024828081039E-002
3.6881804E-001	-5.236468274899297E-002
4.1884086E-001	2.002181688141640E-002
3.5878062E-001	-5.477472908418390E-002
4.0879965E-001	1.762779240194272E-002
3.4875467E-001	-5.625297103146529E-002
3.9885005E-001	1.592924440255762E-002
3.3877835E-001	-5.630909432805686E-002
3.8875917E-001	1.438538868884046E-002
3.2883254E-001	-5.617060590327339E-002
3.7872562E-001	1.242774636491649E-002
3.1879133E-001	-5.508132793375864E-002
3.6885235E-001	1.107441596035100E-002
3.0872333E-001	-5.385123747599097E-002
3.5881498E-001	1.033249982859334E-002
2.9877377E-001	-5.219215661054499E-002
3.4874699E-001	9.594445046651398E-003
2.8883946E-001	-5.008746422158472E-002
3.3886999E-001	9.123448564941211E-003
2.7886319E-001	-4.850298955422291E-002
3.2881734E-001	8.608176402349076E-003
2.6879519E-001	-4.676478539972484E-002
3.1879893E-001	8.085772212073974E-003
2.5881505E-001	-4.538427907267617E-002
3.0882648E-001	7.668937373733892E-003
2.4880053E-001	-4.352539922829846E-002
2.9883492E-001	7.352877587184947E-003
2.3882045E-001	-4.206143989737965E-002
2.8880516E-001	6.887967289583952E-003
2.2874485E-001	-4.030217860309548E-002
2.7878296E-001	6.143643242467078E-003
2.1888685E-001	-3.938281142728423E-002
2.6867300E-001	6.071255170180395E-003
2.0883422E-001	-3.776531758951912E-002
2.5881514E-001	6.299839384232748E-003
1.9887315E-001	-3.636041563698961E-002
2.4884638E-001	6.512971003932291E-003
1.8876317E-001	-3.541501864974450E-002
2.3881277E-001	6.051484239156080E-003
1.7887855E-001	-3.473208084643434E-002
2.2890145E-001	5.888135689174494E-003
1.6888312E-001	-3.398332719513186E-002
2.1886015E-001	5.809092783741282E-003
1.5881132E-001	-3.377922926526311E-002
2.0879602E-001	5.441980377307774E-003
1.4875488E-001	-3.429281428480729E-002
1.9890372E-001	5.630982042640287E-003
1.3880150E-001	-3.473677607936509E-002
1.8882045E-001	5.765700467183249E-003
1.2883656E-001	-3.468648236569016E-002
1.7883657E-001	5.939940330685484E-003
1.1878773E-001	-3.501396284697508E-002
1.6884112E-001	6.074617930714343E-003
1.0889542E-001	-3.478059490252955E-002
1.5871973E-001	5.625282511873393E-003
9.8850317E-002	-3.534649063511375E-002
1.4885412E-001	5.624723560337788E-003
8.8847280E-002	-3.560014092561764E-002
1.3889687E-001	5.387087055885073E-003
7.8916796E-002	-3.629424387861252E-002
1.2883663E-001	5.052983757427973E-003
6.8887047E-002	-3.616238313509501E-002
1.1882591E-001	4.448772851756462E-003
5.8777150E-002	-3.666727145627147E-002
1.0875419E-001	4.138097496777043E-003
4.8877161E-002	-3.707254377842856E-002
9.8785445E-002	3.807275948097509E-003
3.8881723E-002	-3.718724838500613E-002
8.8862635E-002	3.373169672526502E-003
2.8863467E-002	-3.742616301862772E-002
7.8848116E-002	2.891485655399789E-003
1.8929103E-002	-3.792939764606035E-002
6.8860352E-002	2.118551856309305E-003
8.8458229E-003	-3.820293739381381E-002
5.8853436E-002	1.258437036201630E-003
-1.1457358E-003	-3.896767217613278E-002
4.8892450E-002	1.227592828341741E-004
-1.1144976E-002	-3.891759369961367E-002
3.8889404E-002	-8.504233382483767E-004
-2.1163233E-002	-3.910586692856011E-002
2.8974129E-002	-1.962256461101403E-003
-3.1040328E-002	-3.910360890471992E-002
1.8871833E-002	-2.600868066923445E-003
-4.1085351E-002	-3.927896622039084E-002
8.8993646E-003	-3.483466211927154E-003
-5.1099882E-002	-3.936280644027534E-002
-1.0960726E-003	-3.801029672297562E-003
-6.1228871E-002	-3.990017551834968E-002
-1.1179279E-002	-4.285223403635331E-003
-7.1273975E-002	-4.028095241910784E-002
-2.1002907E-002	-4.464695693620362E-003
-8.1254117E-002	-4.026112275812227E-002
-3.1200726E-002	-4.752978596727991E-003
-9.1192216E-002	-4.019724663622254E-002
-4.1131139E-002	-5.006819937911947E-003
-1.0112658E-001	-4.048191417933458E-002
-5.1199131E-002	-5.538785130758062E-003
-1.1121739E-001	-4.060104540269793E-002
-6.1320592E-002	-6.223816671924426E-003
-1.2122804E-001	-4.061351382502604E-002
-7.1201414E-002	-7.436942018267334E-003
-1.3126554E-001	-4.107389306366888E-002
-8.1265531E-002	-8.575027566978533E-003
-1.4119983E-001	-4.140931426058586E-002
-9.1226593E-002	-9.492412932539759E-003
-1.5116081E-001	-4.163981245885003E-002
-1.0121435E-001	-1.003427354249227E-002
-1.6135475E-001	-4.330096229247649E-002
-1.1122888E-001	-1.046563665410392E-002
-1.7108293E-001	-4.623497796784903E-002
-1.2123952E-001	-1.113961391402363E-002
-1.8134943E-001	-5.124147995276020E-002
-1.3115472E-001	-1.143657383835628E-002
-1.9106993E-001	-5.864312316221687E-002
-1.4126471E-001	-1.249761769610060E-002
-2.0152988E-001	-6.996849306086272E-002
-1.5151848E-001	-1.279916922500521E-002
-2.1146420E-001	-8.775229995792877E-002
-1.6155207E-001	-1.466400313233385E-002
-2.2146343E-001	-1.141755395430200E-001
-1.7158183E-001	-1.775891847351077E-002
-2.3150083E-001	-1.508936476002032E-001
-1.8151614E-001	-2.179196431304867E-002
-2.4148478E-001	-1.986809611479021E-001
-1.9144665E-001	-2.833191144956335E-002
-2.5143057E-001	-2.581007476261956E-001
-2.0152988E-001	-3.833309556139671E-002
-2.6148707E-001	-3.231590037491729E-001
-2.1155582E-001	-4.987229966370277E-002
-2.7151680E-001	-3.851010040875442E-001
-2.2152451E-001	-6.338749979523584E-002
-2.8150079E-001	-4.330398918307852E-001
-2.3147027E-001	-7.875491882813113E-002
-2.9144654E-001	-4.599794750200941E-001
-2.4146187E-001	-9.424024412131082E-002
-3.0147249E-001	-4.660191440043304E-001
-2.5152981E-001	-1.086553070060117E-001
-3.1152135E-001	-4.586408265886170E-001
-2.6145270E-001	-1.230114819680124E-001
-3.2150528E-001	-4.441676508397499E-001
-2.7149010E-001	-1.361960144119061E-001
-3.3151978E-001	-4.271991516839952E-001
-2.8148550E-001	-1.487318563889317E-001
-3.4146175E-001	-4.113059303069373E-001
-2.9150382E-001	-1.590237478586904E-001
-3.5146478E-001	-3.951824647473527E-001
-3.0143815E-001	-1.680889451044036E-001
-3.6147928E-001	-3.813507821648681E-001
-3.1145263E-001	-1.757224961084889E-001
-3.7145180E-001	-3.695811420044999E-001
-3.2142130E-001	-1.820617564260330E-001
-3.8143194E-001	-3.586247631527009E-001
-3.3145487E-001	-1.870865502810861E-001
-3.9150369E-001	-3.487130451868188E-001
-3.4148467E-001	-1.913697447310738E-001
-4.0145707E-001	-3.401537583546435E-001
-3.5145715E-001	-1.949829997375927E-001
-4.1137615E-001	-3.323659537796013E-001
-3.6147547E-001	-1.977478869338619E-001
-4.2143267E-001	-3.256834782660007E-001
-3.7145942E-001	-2.009301584689540E-001
-4.3144330E-001	-3.194939456087482E-001
-3.8143575E-001	-2.039928477495274E-001
-4.4140819E-001	-3.136377347276565E-001
-3.9146933E-001	-2.068806686141391E-001
-4.5144942E-001	-3.082987894403177E-001
-4.0144181E-001	-2.091145882026320E-001
-4.6138754E-001	-3.037211691286972E-001
-4.1144487E-001	-2.117481584799421E-001
-4.7138679E-001	-2.995711464355608E-001
-4.2148989E-001	-2.136756808279043E-001
-4.8147762E-001	-2.962729124788277E-001
-4.3145096E-001	-2.157124483046382E-001
-4.9149212E-001	-2.929232988823602E-001
-4.4140056E-001	-2.163949473661946E-001
-5.0152570E-001	-2.897924861692367E-001
-4.5143414E-001	-2.171021910740985E-001
-5.1157075E-001	-2.868522438121603E-001
-4.6144867E-001	-2.168430567104767E-001
-5.2150506E-001	-2.841078838373123E-001
-4.7141349E-001	-2.166990866052347E-001
-5.3151578E-001	-2.816542184099236E-001
-4.8150817E-001	-2.162510973817495E-001
-5.4153407E-001	-2.790595832419527E-001
-4.9150360E-001	-2.155311639480137E-001
-5.5152565E-001	-2.771912161260848E-001
-5.0154477E-001	-2.149114415762909E-001
-5.6146377E-001	-2.752696787740332E-001
-5.1155168E-001	-2.139955375026514E-001
-5.7153171E-001	-2.733463710372117E-001
-5.2153176E-001	-2.134152516484895E-001
-5.8155388E-001	-2.717818407777779E-001
-5.3152341E-001	-2.132322569080491E-001
-5.9154546E-001	-2.701220212781683E-001
-5.4148060E-001	-2.128578516793382E-001
-6.0147595E-001	-2.692532581772578E-001
-5.5146456E-001	-2.119753718217638E-001
-6.1144465E-001	-2.690954766374958E-001
-5.6147909E-001	-2.111390753391573E-001
-6.2144387E-001	-2.693689804365662E-001
-5.7144010E-001	-2.104132080331773E-001
-6.3148886E-001	-2.700632782454822E-001
-5.8158439E-001	-2.104329404599490E-001
-6.4154154E-001	-2.719268999359716E-001
-5.9151876E-001	-2.104894336550796E-001
-6.5147966E-001	-2.737159714736838E-001
-6.0151798E-001	-2.104636439459121E-001
-6.6152477E-001	-2.756348838038902E-001
-6.1144847E-001	-2.108540905520639E-001
-6.7151636E-001	-2.782615699825137E-001
-6.2147826E-001	-2.119841515383820E-001
-6.8144685E-001	-2.816151126505848E-001
-6.3148129E-001	-2.132646673695842E-001
-6.9146132E-001	-2.860804832282853E-001
-6.4151865E-001	-2.150238669536853E-001
-7.0149875E-001	-2.911120026194036E-001
-6.5143394E-001	-2.160251339937149E-001
-7.1147889E-001	-2.969627322906514E-001
-6.6149420E-001	-2.187727330688469E-001
-7.2139031E-001	-3.038753803740160E-001
-6.7147815E-001	-2.214230648935480E-001
-7.3145062E-001	-3.113711686368958E-001
-6.8145448E-001	-2.253445886630328E-001
-7.4146509E-001	-3.188923613980730E-001
-6.9146895E-001	-2.298011053353548E-001
-7.5138026E-001	-3.279601407653474E-001
-7.0149493E-001	-2.352266310852893E-001
-7.6141775E-001	-3.377610533002846E-001
-7.1139872E-001	-2.418265696218675E-001
-7.7140546E-001	-3.496748960398621E-001
-7.2139788E-001	-2.495346597217498E-001
-7.8145051E-001	-3.632239184956605E-001
-7.3145825E-001	-2.593031887836914E-001
-7.9146504E-001	-3.791842310035491E-001
-7.4143839E-001	-2.706600673338202E-001
-8.0138791E-001	-3.978562451740526E-001
-7.5136125E-001	-2.841540207254130E-001
-8.1148255E-001	-4.194876371704535E-001
-7.6134521E-001	-2.995363972050722E-001
-8.2150853E-001	-4.438670423436673E-001
-7.7146280E-001	-3.168588231535674E-001
-8.3146954E-001	-4.703400922106944E-001
-7.8149253E-001	-3.353316402657240E-001
-8.4142679E-001	-4.975726105906872E-001
-7.9140395E-001	-3.544111053677312E-001
-8.5131913E-001	-5.252797189069565E-001
-8.0145282E-001	-3.730863763930952E-001
-8.6138332E-001	-5.520322845971335E-001
-8.1150550E-001	-3.906401074788675E-001
-8.7136340E-001	-5.772058952679027E-001
-8.2142836E-001	-4.075028548373827E-001
-8.8145423E-001	-6.008640977930524E-001
-8.3154976E-001	-4.219348260221327E-001
-8.9140004E-001	-6.212583060594321E-001
-8.4147263E-001	-4.342627987424112E-001
-9.0155584E-001	-6.385502897678537E-001
-8.5148716E-001	-4.431941945977664E-001
-9.1160846E-001	-6.507314571991882E-001
-8.6148256E-001	-4.496655934985654E-001
-9.2145115E-001	-6.589056067961341E-001
-8.7146646E-001	-4.570685407107185E-001
-9.3153054E-001	-6.659408292554794E-001
-8.8145429E-001	-4.640401631910751E-001
-9.4153363E-001	-6.709188685772274E-001
-8.9151454E-001	-4.706614535064144E-001
-9.5149082E-001	-6.722913890125914E-001
-9.0150619E-001	-4.779403603615933E-001
-9.6156639E-001	-6.722017379200214E-001
-9.1159701E-001	-4.861140436631572E-001
-9.7152746E-001	-6.717041291772059E-001
-9.2155045E-001	-4.941767292453889E-001
-9.8145801E-001	-6.713683730427258E-001
-9.3149620E-001	-5.024643535626696E-001
-9.9156785E-001	-6.725155731782000E-001
-9.4149160E-001	-5.125864209963922E-001
-1.0014678E+000	-6.733970481981633E-001
-9.5150226E-001	-5.210396456433113E-001
-1.0115321E+000	-6.752025326515785E-001
-9.6153206E-001	-5.299240296032837E-001
-1.0214778E+000	-6.774772391357321E-001
-9.7154272E-001	-5.384271330338848E-001
-1.0314732E+000	-6.801657110769699E-001
-9.8151523E-001	-5.467191229950883E-001
-1.0415297E+000	-6.834716638352027E-001
-9.9156410E-001	-5.544285725881450E-001
-1.0515059E+000	-6.864307169267470E-001
-1.0015023E+000	-5.617664285162682E-001
-1.0614480E+000	-6.899667006540824E-001
-1.0114099E+000	-5.680442281225915E-001
-1.0715121E+000	-6.939397971046741E-001
-1.0215274E+000	-5.744076176209667E-001
-1.0814655E+000	-6.956215136228732E-001
-1.0313931E+000	-5.795125889968369E-001
-1.0914991E+000	-6.978119792456319E-001
-1.0414877E+000	-5.829810314673072E-001
-1.1014677E+000	-6.992785054001409E-001
-1.0514984E+000	-5.867770139841344E-001
-1.1114975E+000	-7.031671791634651E-001
-1.0614823E+000	-5.889399034228732E-001
-1.1213975E+000	-7.035221555765636E-001
-1.0714548E+000	-5.913900688607647E-001
-1.1314807E+000	-7.079810801338660E-001
-1.0815265E+000	-5.924277839825511E-001
-1.1415143E+000	-7.109376653394808E-001
-1.0914875E+000	-5.938261295569705E-001
-1.1514295E+000	-7.144434696182298E-001
-1.1014448E+000	-5.955179290885626E-001
-1.1614592E+000	-7.188431438296412E-001
-1.1114403E+000	-5.990607782881310E-001
-1.1713974E+000	-7.234003306069283E-001
-1.1214395E+000	-6.032554507255554E-001
-1.1814768E+000	-7.258768357495047E-001
-1.1313547E+000	-6.046289234085287E-001
-1.1914876E+000	-7.285986522093735E-001
-1.1414990E+000	-6.066809976671603E-001
-1.2014066E+000	-7.312482295835316E-001
-1.1514944E+000	-6.090298315629046E-001
-1.2113943E+000	-7.346348580210780E-001
-1.1614593E+000	-6.133890591086235E-001
-1.2214546E+000	-7.410558441534958E-001
-1.1713096E+000	-6.163630300062781E-001