Ewe/V	<I>/mA	
1.2785121E+000	2.079940605163574E+001
1.3285426E+000	2.766082334518433E+001
1.2685320E+000	1.968676424026489E+001
1.3185740E+000	2.614884066581726E+001
1.2585442E+000	1.857765507698059E+001
1.3085098E+000	2.465328264236450E+001
1.2484839E+000	1.746582436561584E+001
1.2985067E+000	2.327777194976807E+001
1.2385191E+000	1.636483287811279E+001
1.2885648E+000	2.196586513519287E+001
1.2285770E+000	1.537949442863464E+001
1.2785084E+000	2.064975547790527E+001
1.2185931E+000	1.446134102344513E+001
1.2685511E+000	1.942781138420105E+001
1.2085671E+000	1.354514563083649E+001
1.2585175E+000	1.832280969619751E+001
1.1985717E+000	1.269341349601746E+001
1.2485297E+000	1.722501707077026E+001
1.1884503E+000	1.194577813148499E+001
1.2385420E+000	1.617177700996399E+001
1.1784779E+000	1.121714794635773E+001
1.2285541E+000	1.523275625705719E+001
1.1684786E+000	1.050136256217957E+001
1.2185587E+000	1.435891544818878E+001
1.1584374E+000	9.880314946174622E+000
1.2085404E+000	1.347676622867584E+001
1.1485107E+000	9.315135955810547E+000
1.1984878E+000	1.267116177082062E+001
1.1384847E+000	8.736204385757446E+000
1.1884962E+000	1.198273730278015E+001
1.1285161E+000	8.199962496757507E+000
1.1785160E+000	1.128476309776306E+001
1.1185282E+000	7.758505880832672E+000
1.1684824E+000	1.061142826080322E+001
1.1084794E+000	7.312704086303711E+000
1.1584946E+000	1.003985071182251E+001
1.0985336E+000	6.853770434856415E+000
1.1484687E+000	9.504038095474243E+000
1.0884771E+000	6.471429646015167E+000
1.1384962E+000	8.952611565589905E+000
1.0785047E+000	6.139274418354034E+000
1.1284932E+000	8.451227545738220E+000
1.0685016E+000	5.764239251613617E+000
1.1184787E+000	8.031115412712097E+000
1.0584527E+000	5.414464116096497E+000
1.1085062E+000	7.600164234638214E+000
1.0484955E+000	5.140804171562195E+000
1.0985146E+000	7.158803045749664E+000
1.0385269E+000	4.858405470848084E+000
1.0885192E+000	6.798331677913666E+000
1.0285047E+000	4.543440878391266E+000
1.0785085E+000	6.464601278305054E+000
1.0184979E+000	4.287257552146912E+000
1.0684978E+000	6.101455628871918E+000
1.0084720E+000	4.083122670650482E+000
1.0585330E+000	5.766005933284760E+000
9.9851084E-001	3.826796233654022E+000
1.0485299E+000	5.499985992908478E+000
9.8848492E-001	3.579398989677429E+000
1.0384926E+000	5.218685567378998E+000
9.7850478E-001	3.399044126272202E+000
1.0285047E+000	4.910454034805298E+000
9.6846735E-001	3.217925041913986E+000
1.0185093E+000	4.668404936790466E+000
9.5849103E-001	2.984470993280411E+000
1.0085483E+000	4.460306644439697E+000
9.4854140E-001	2.802301496267319E+000
9.9849939E-001	4.203263878822327E+000
9.3849254E-001	2.671989440917969E+000
9.8847729E-001	3.967183768749237E+000
9.2849714E-001	2.494881510734558E+000
9.7850090E-001	3.796522051095963E+000
9.1852850E-001	2.299389541149139E+000
9.6851701E-001	3.609529733657837E+000
9.0854073E-001	2.179200649261475E+000
9.5847195E-001	3.380850911140442E+000
8.9850712E-001	2.056719690561295E+000
9.4857198E-001	3.214821249246597E+000
8.8857663E-001	1.883622840046883E+000
9.3848878E-001	3.090239226818085E+000
8.7855446E-001	1.738221555948257E+000
9.2856973E-001	2.910886913537979E+000
8.6849803E-001	1.654753044247627E+000
9.1855520E-001	2.737885564565659E+000
8.5853696E-001	1.531555786728859E+000
9.0849870E-001	2.629968643188477E+000
8.4852242E-001	1.364905297756195E+000
8.9853764E-001	2.516703605651855E+000
8.3859193E-001	1.274608448147774E+000
8.8853079E-001	2.354494065046310E+000
8.2852018E-001	1.202409148216248E+000
8.7854302E-001	2.236119627952576E+000
8.1853241E-001	1.063310950994492E+000
8.6859345E-001	2.171656042337418E+000
8.0855608E-001	9.386812299489975E-001
8.5855985E-001	2.057053953409195E+000
7.9851490E-001	8.807594329118729E-001
8.4857589E-001	1.921871379017830E+000
7.8852713E-001	7.960494011640549E-001
8.3858812E-001	1.860797971487045E+000
7.7844006E-001	6.503615304827690E-001
8.2858890E-001	1.803878933191299E+000
7.6843703E-001	5.670362934470177E-001
8.1854767E-001	1.689563438296318E+000
7.5844544E-001	5.317484140396118E-001
8.0854845E-001	1.601463049650192E+000
7.4843860E-001	4.174806140363216E-001
7.9854923E-001	1.582935720682144E+000
7.3848134E-001	3.050273545086384E-001
7.8855383E-001	1.517135024070740E+000
7.2844774E-001	2.605713047087193E-001
7.7840191E-001	1.409265846014023E+000
7.1844852E-001	2.076156269758940E-001
7.6844084E-001	1.373834714293480E+000
7.0844936E-001	8.437066338956356E-002
7.5842255E-001	1.362899780273438E+000
6.9841951E-001	1.761687919497490E-003
7.4845004E-001	1.282296299934387E+000
6.8845469E-001	-1.853242598008364E-002
7.3838204E-001	1.214394629001617E+000
6.7848599E-001	-1.016666595824063E-001
7.2844011E-001	1.218692198395729E+000
6.6846764E-001	-2.242430932819843E-001
7.1847528E-001	1.193718463182449E+000
6.5844560E-001	-2.638285607099533E-001
7.0840734E-001	1.107480481266975E+000
6.4846921E-001	-3.015039786696434E-001
6.9845772E-001	1.084703266620636E+000
6.3845855E-001	-4.148644916713238E-001
6.8853104E-001	1.107480481266975E+000
6.2845933E-001	-5.074533969163895E-001
6.7849362E-001	1.054906785488129E+000
6.1843717E-001	-5.238796845078468E-001
6.6845620E-001	9.976535215973854E-001
6.0845321E-001	-5.910651534795761E-001
6.5841883E-001	1.014414072036743E+000
5.9850359E-001	-7.199446782469749E-001
6.4846539E-001	1.018663890659809E+000
5.8845097E-001	-7.684118151664734E-001
6.3850439E-001	9.509054496884346E-001
5.7845938E-001	-7.908546999096870E-001
6.2853187E-001	9.280805140733719E-001
5.6852120E-001	-8.949515521526337E-001
6.1849064E-001	9.660901874303818E-001
5.5850673E-001	-9.963266253471375E-001
6.0849905E-001	9.366756603121758E-001
5.4847693E-001	-1.023687876760960E+000
5.9851128E-001	8.740742877125740E-001
5.3847390E-001	-1.076786801218987E+000
5.8849674E-001	8.904051110148430E-001
5.2852815E-001	-1.207051113247871E+000
5.7847083E-001	9.090756550431252E-001
5.1849455E-001	-1.280062198638916E+000
5.6846017E-001	8.533026799559593E-001
5.0855261E-001	-1.300929293036461E+000
5.5841511E-001	8.139082267880440E-001
4.9846935E-001	-1.404787376523018E+000
5.4854566E-001	8.526818677783012E-001
4.8845869E-001	-1.529560372233391E+000
5.3856939E-001	8.377836421132088E-001
4.7849381E-001	-1.579746544361115E+000
5.2848995E-001	7.583262175321579E-001
4.6846789E-001	-1.637095302343369E+000
5.1850981E-001	7.585649862885475E-001
4.5849919E-001	-1.776766523718834E+000
5.0850677E-001	7.784293293952942E-001
4.4854960E-001	-1.887548476457596E+000
4.9854955E-001	7.153982073068619E-001
4.3851984E-001	-1.926704183220863E+000
4.8853505E-001	6.513165533542633E-001
4.2852059E-001	-2.039014205336571E+000
4.7853199E-001	6.631110087037086E-001
4.1849083E-001	-2.203850179910660E+000
4.6853277E-001	6.413366049528122E-001
4.0854126E-001	-2.290756791830063E+000
4.5851830E-001	5.439248941838741E-001
3.9856109E-001	-2.367301344871521E+000
4.4854960E-001	4.973677992820740E-001
3.8852373E-001	-2.529940783977509E+000
4.3847781E-001	4.991823285818100E-001
3.7847483E-001	-2.688378036022186E+000
4.2852443E-001	4.174806289374828E-001
3.6853290E-001	-2.774568319320679E+000
4.1854811E-001	3.157235421240330E-001
3.5843056E-001	-2.915003627538681E+000
4.0856034E-001	2.835872229188681E-001
3.4844664E-001	-3.118613183498383E+000
3.9851528E-001	2.384149152785540E-001
3.3848557E-001	-3.256326615810394E+000
3.8852751E-001	1.092966143041849E-001
3.2850161E-001	-3.366344600915909E+000
3.7859318E-001	1.474992121802643E-002
3.1845659E-001	-3.554530739784241E+000
3.6859399E-001	-1.433035079389811E-002
3.0847263E-001	-3.752887815237045E+000
3.5847259E-001	-1.232022983022034E-001
2.9854593E-001	-3.873649716377258E+000
3.4844661E-001	-2.681738846004009E-001
2.8846273E-001	-4.009071022272110E+000
3.3846268E-001	-3.295814804732800E-001
2.7848640E-001	-4.225621283054352E+000
3.2844818E-001	-3.895565457642078E-001
2.6850244E-001	-4.389549851417542E+000
3.1849858E-001	-5.251212157309055E-001
2.5845739E-001	-4.481709063053131E+000
3.0845353E-001	-6.363807022571564E-001
2.4847727E-001	-4.638331890106201E+000
2.9849631E-001	-6.669412553310394E-001
2.3850475E-001	-4.816108286380768E+000
2.8848946E-001	-7.474014088511467E-001
2.2847117E-001	-4.898717284202576E+000
2.7855512E-001	-8.769017308950424E-001
2.1847576E-001	-4.961891591548920E+000
2.6847953E-001	-9.233633130788803E-001
2.0849945E-001	-5.087046623229980E+000
2.5845361E-001	-9.365903213620186E-001
1.9850022E-001	-5.168413937091827E+000
2.4838945E-001	-1.015522487461567E+000
1.8843991E-001	-5.158100008964539E+000
2.3851240E-001	-1.082946673035622E+000
1.7845596E-001	-5.182309567928314E+000
2.2859716E-001	-1.060026273131371E+000
1.6848728E-001	-5.242236971855164E+000
2.1846431E-001	-1.058832466602325E+000
1.5849569E-001	-5.203940808773041E+000
2.0843837E-001	-1.117470517754555E+000
1.4848882E-001	-5.130308866500854E+000
1.9851550E-001	-1.106487840414047E+000
1.3845906E-001	-5.120997428894043E+000
1.8850482E-001	-1.041164666414261E+000
1.2849037E-001	-5.091726124286652E+000
1.7852087E-001	-1.048040807247162E+000
1.1855605E-001	-4.970295786857605E+000
1.6855219E-001	-1.059787526726723E+000
1.0856828E-001	-4.885155856609344E+000
1.5851095E-001	-9.906920418143272E-001
9.8477423E-002	-4.858463346958160E+000
1.4848883E-001	-9.305736720561981E-001
8.8497289E-002	-4.761672377586365E+000
1.3858123E-001	-9.510110542178154E-001
7.8532420E-002	-4.624866008758545E+000
1.2851328E-001	-9.199252501130104E-001
6.8510294E-002	-4.567374110221863E+000
1.1847969E-001	-8.250442966818810E-001
5.8518700E-002	-4.516710400581360E+000
1.0852247E-001	-8.086657598614693E-001
4.8523292E-002	-4.391507685184479E+000
9.8553784E-002	-8.255218043923378E-001
3.8554609E-002	-4.285452961921692E+000
8.8558376E-002	-7.580498754978180E-001
2.8574470E-002	-4.261195540428162E+000
7.8566782E-002	-6.980270594358444E-001
1.8579064E-002	-4.185510516166687E+000
6.8559922E-002	-7.131163179874420E-001
8.5378401E-003	-4.060642004013062E+000
5.8545426E-002	-7.062879428267479E-001
-1.5301084E-003	-4.015374213457108E+000
4.8488930E-002	-6.272602826356888E-001
-1.1494972E-002	-3.993217825889587E+000
3.8554609E-002	-6.103087216615677E-001
-2.1452198E-002	-3.898241311311722E+000
2.8563019E-002	-6.454533413052559E-001
-3.1432334E-002	-3.812719613313675E+000
1.8559976E-002	-6.046741232275963E-001
-4.1423921E-002	-3.810761809349060E+000
8.5798381E-003	-5.502381734549999E-001
-5.1384967E-002	-3.777527242898941E+000
-1.3888442E-003	-5.745911002159119E-001
-6.1559819E-002	-3.684890508651733E+000
-1.1414794E-002	-5.905398875474930E-001
-7.1585774E-002	-3.655428200960159E+000
-2.1478923E-002	-5.309945754706860E-001
-8.1562087E-002	-3.668655246496201E+000
-3.1432334E-002	-5.124672539532185E-001
-9.1580398E-002	-3.612452536821365E+000
-4.1393377E-002	-5.635129064321518E-001
-1.0161398E-001	-3.549851149320602E+000
-5.1426966E-002	-5.475163608789444E-001
-1.1160176E-001	-3.569667756557465E+000
-6.1582725E-002	-4.954202026128769E-001
-1.2152462E-001	-3.575732082128525E+000
-7.1570501E-002	-5.252167209982872E-001
-1.3152766E-001	-3.511363923549652E+000
-8.1558265E-002	-5.563980266451836E-001
-1.4154598E-001	-3.501527309417725E+000
-9.1530770E-002	-5.142817720770836E-001
-1.5151466E-001	-3.555724531412125E+000
-1.0149945E-001	-4.944174177944660E-001
-1.6160171E-001	-3.548657387495041E+000
-1.1152922E-001	-5.501426681876183E-001
-1.7150928E-001	-3.524543225765228E+000
-1.2148263E-001	-5.588333383202553E-001
-1.8154287E-001	-3.595166653394699E+000
-1.3149713E-001	-5.097931921482086E-001
-1.9153064E-001	-3.689808815717697E+000
-1.4151543E-001	-5.426935330033302E-001
-2.0154896E-001	-3.733835101127625E+000
-1.5149176E-001	-6.070139259099960E-001
-2.1155964E-001	-3.843805313110352E+000
-1.6146807E-001	-6.074436679482460E-001
-2.2153214E-001	-4.080744981765747E+000
-1.7146729E-001	-6.297911033034325E-001
-2.3154664E-001	-4.322746336460114E+000
-1.8155813E-001	-7.520332634449005E-001
-2.4158785E-001	-4.588861942291260E+000
-1.9147721E-001	-8.871204331517220E-001
-2.5146490E-001	-5.028265178203583E+000
-2.0150697E-001	-9.988574087619781E-001
-2.6151377E-001	-5.591199994087219E+000
-2.1151383E-001	-1.227584019303322E+000
-2.7150917E-001	-6.193242907524109E+000
-2.2147489E-001	-1.588914647698402E+000
-2.8152749E-001	-6.912322998046875E+000
-2.3152755E-001	-1.967101424932480E+000
-2.9150382E-001	-7.820544064044952E+000
-2.4147332E-001	-2.420161455869675E+000
-3.0155268E-001	-8.809559702873230E+000
-2.5151455E-001	-3.047989696264267E+000
-3.1147173E-001	-9.810990571975708E+000
-2.6147941E-001	-3.779437154531479E+000
-3.2152820E-001	-1.095553100109100E+001
-2.7149010E-001	-4.534521460533142E+000
-3.3149689E-001	-1.221510279178619E+001
-2.8151223E-001	-5.402154386043549E+000
-3.4159920E-001	-1.346140003204346E+001
-2.9145420E-001	-6.429322898387909E+000
-3.5148388E-001	-1.471949183940887E+001
-3.0151832E-001	-7.470100522041321E+000
-3.6142963E-001	-1.608406734466553E+001
-3.1146407E-001	-8.507631063461304E+000
-3.7142506E-001	-1.746755361557007E+001
-3.2155874E-001	-9.662819623947144E+000
-3.8147390E-001	-1.876814317703247E+001
-3.3147016E-001	-1.087612116336823E+001
-3.9143115E-001	-2.009031677246094E+001
-3.4146938E-001	-1.203503429889679E+001
-4.0155637E-001	-2.146983861923218E+001
-3.5144570E-001	-1.318568658828735E+001
-4.1149449E-001	-2.275605535507202E+001
-3.6151746E-001	-1.441359961032867E+001
-4.2146701E-001	-2.394977927207947E+001
-3.7145177E-001	-1.560121095180511E+001
-4.3143949E-001	-2.516078829765320E+001
-3.8143575E-001	-1.667063951492310E+001
-4.4149220E-001	-2.633612751960754E+001
-3.9140823E-001	-1.774498558044434E+001
-4.5145705E-001	-2.733679485321045E+001
-4.0147620E-001	-1.881613230705261E+001
-4.6147916E-001	-2.824969530105591E+001
-4.1150212E-001	-1.974063754081726E+001
-4.7146693E-001	-2.914292287826538E+001
-4.2137155E-001	-2.054113221168518E+001
-4.8155782E-001	-2.988339519500732E+001
-4.3144715E-001	-2.132314825057983E+001
-4.9149594E-001	-3.039729046821594E+001
-4.4153038E-001	-2.198764848709106E+001
-5.0150663E-001	-3.082991266250610E+001
-4.5139596E-001	-2.242800784111023E+001
-5.1152492E-001	-3.112907195091248E+001
-4.6152118E-001	-2.276188087463379E+001
-5.2159292E-001	-3.117042517662048E+001
-4.7145167E-001	-2.300985145568848E+001
-5.3145087E-001	-3.101370573043823E+001
-4.8158070E-001	-2.303004956245422E+001
-5.4159516E-001	-3.074596714973450E+001
-4.9151886E-001	-2.282271575927734E+001
-5.5152565E-001	-3.025289201736450E+001
-5.0147223E-001	-2.251806545257568E+001
-5.6156689E-001	-2.949943089485168E+001
-5.1150584E-001	-2.205932307243347E+001
-5.7153559E-001	-2.865433526039124E+001
-5.2155089E-001	-2.135590481758118E+001
-5.8153480E-001	-2.773226737976074E+001
-5.3160352E-001	-2.056696629524231E+001
-5.9145004E-001	-2.665433955192566E+001
-5.4155695E-001	-1.976771187782288E+001
-6.0147220E-001	-2.551696228981018E+001
-5.5152184E-001	-1.885204172134399E+001
-6.1150575E-001	-2.448143696784973E+001
-5.6143707E-001	-1.787291002273560E+001
-6.2150878E-001	-2.346845054626465E+001
-5.7148975E-001	-1.699276614189148E+001
-6.3147742E-001	-2.242781591415405E+001
-5.8159965E-001	-1.616729736328125E+001
-6.4153773E-001	-2.151758885383606E+001
-5.9157217E-001	-1.531050395965576E+001
-6.5147966E-001	-2.076474905014038E+001
-6.0154468E-001	-1.453288161754608E+001
-6.6152090E-001	-2.001888108253479E+001
-6.1155152E-001	-1.390576958656311E+001
-6.7152780E-001	-1.932434535026550E+001
-6.2153167E-001	-1.330372691154480E+001
-6.8150789E-001	-1.879674625396729E+001
-6.3153851E-001	-1.269986951351166E+001
-6.9151860E-001	-1.834220552444458E+001
-6.4151871E-001	-1.223367810249329E+001
-7.0152164E-001	-1.786159300804138E+001
-6.5147209E-001	-1.186026608943939E+001
-7.1155143E-001	-1.746740961074829E+001
-6.6149801E-001	-1.145586419105530E+001
-7.2153157E-001	-1.720702481269836E+001
-6.7145908E-001	-1.108708417415619E+001
-7.3150408E-001	-1.691507601737976E+001
-6.8148881E-001	-1.084914195537567E+001
-7.4144989E-001	-1.660230803489685E+001
-6.9150335E-001	-1.061392116546631E+001
-7.5148338E-001	-1.639779067039490E+001
-7.0144147E-001	-1.032464659214020E+001
-7.6144826E-001	-1.623901891708374E+001
-7.1146363E-001	-1.012223076820374E+001
-7.7141696E-001	-1.600647282600403E+001
-7.2146285E-001	-9.994019865989685E+000
-7.8141999E-001	-1.579727566242218E+001
-7.3152697E-001	-9.802395462989807E+000
-7.9146886E-001	-1.569279682636261E+001
-7.4146128E-001	-9.599263191223145E+000
-8.0145282E-001	-1.554811215400696E+001
-7.5146812E-001	-9.494211435317993E+000
-8.1150550E-001	-1.534063506126404E+001
-7.6147884E-001	-9.396417975425720E+000
-8.2143980E-001	-1.522269034385681E+001
-7.7145511E-001	-9.212194919586182E+000
-8.3150774E-001	-1.514628863334656E+001
-7.8137416E-001	-9.080736517906189E+000
-8.4148407E-001	-1.499759268760681E+001
-7.9149175E-001	-9.035277962684631E+000
-8.5146803E-001	-1.484077906608582E+001
-8.0151391E-001	-8.919577479362488E+000
-8.6145586E-001	-1.478796637058258E+001
-8.1142914E-001	-8.772552847862244E+000
-8.7145883E-001	-1.471481204032898E+001
-8.2139021E-001	-8.719119787216187E+000
-8.8145047E-001	-1.455656540393829E+001
-8.3145428E-001	-8.687747478485107E+000
-8.9138091E-001	-1.446722424030304E+001
-8.4149551E-001	-8.565791845321655E+000
-9.0151757E-001	-1.446220993995667E+001
-8.5141844E-001	-8.480556249618530E+000
-9.1150540E-001	-1.437511265277863E+001
-8.6144823E-001	-8.498749375343323E+000
-9.2147785E-001	-1.427875196933746E+001
-8.7141299E-001	-8.471626996994019E+000
-9.3159926E-001	-1.429150068759918E+001
-8.8148481E-001	-8.386343955993652E+000
-9.4162142E-001	-1.432378041744232E+001
-8.9145350E-001	-8.408118128776550E+000
-9.5150989E-001	-1.428572309017181E+001
-9.0156341E-001	-8.478598475456238E+000
-9.6151298E-001	-1.431962621212006E+001
-9.1147482E-001	-8.476688504219055E+000
-9.7145873E-001	-1.446321272850037E+001
-9.2155039E-001	-8.488817214965820E+000
-9.8149228E-001	-1.455928802490234E+001
-9.3145806E-001	-8.620275497436523E+000
-9.9149537E-001	-1.462484955787659E+001
-9.4159085E-001	-8.730293154716492E+000
-1.0015671E+000	-1.479479503631592E+001
-9.5154428E-001	-8.763527750968933E+000
-1.0114938E+000	-1.499042999744415E+001
-9.6152437E-001	-8.886915922164917E+000
-1.0215045E+000	-1.509529089927673E+001
-9.7152364E-001	-9.072093963623047E+000
-1.0315228E+000	-1.521538460254669E+001
-9.8153430E-001	-9.171463727951050E+000
-1.0415106E+000	-1.541312026977539E+001
-9.9153739E-001	-9.254836320877075E+000
-1.0516205E+000	-1.553927850723267E+001
-1.0015328E+000	-9.424590826034546E+000
-1.0615243E+000	-1.557045948505402E+001
-1.0115206E+000	-9.576581835746765E+000
-1.0714854E+000	-1.566328680515289E+001
-1.0215274E+000	-9.624475717544556E+000
-1.0815419E+000	-1.577158582210541E+001
-1.0314655E+000	-9.713626384735107E+000
-1.0915220E+000	-1.576566469669342E+001
-1.0415487E+000	-9.863994121551514E+000
-1.1015861E+000	-1.573930621147156E+001
-1.0515213E+000	-9.914418578147888E+000
-1.1114556E+000	-1.579469728469849E+001
-1.0615395E+000	-9.913034200668335E+000
-1.1215311E+000	-1.580348336696625E+001
-1.0714471E+000	-9.985519886016846E+000
-1.1315533E+000	-1.571423745155334E+001
-1.0814960E+000	-1.005232310295105E+001
-1.1414531E+000	-1.568878591060638E+001
-1.0914838E+000	-1.000333106517792E+001
-1.1514103E+000	-1.571270906925201E+001
-1.1015975E+000	-9.979933142662048E+000
-1.1615318E+000	-1.564924848079681E+001
-1.1114594E+000	-1.004229581356049E+001
-1.1714661E+000	-1.555589580535889E+001
-1.1215311E+000	-1.002381622791290E+001
-1.1814616E+000	-1.556506383419037E+001
-1.1314005E+000	-9.937243700027466E+000
-1.1914073E+000	-1.556229424476624E+001
-1.1415257E+000	-9.945409059524536E+000
-1.2015287E+000	-1.546344983577728E+001
-1.1515249E+000	-9.974585175514221E+000
-1.2114860E+000	-1.542878329753876E+001
-1.1614708E+000	-9.910312414169312E+000
-1.2214699E+000	-1.547853922843933E+001
-1.1714700E+000	-9.862847805023193E+000