Ewe/V	<I>/mA	
1.2788467E+000	1.995020675659180E+001
1.3288658E+000	2.652778598240442E+001
1.2687902E+000	1.867046550828583E+001
1.3187902E+000	2.501870353854432E+001
1.2587987E+000	1.747837872407871E+001
1.3088330E+000	2.352861824814153E+001
1.2488376E+000	1.637819122781558E+001
1.2988375E+000	2.218042315269003E+001
1.2388194E+000	1.532942717415943E+001
1.2887772E+000	2.082977100294464E+001
1.2287780E+000	1.435652584932285E+001
1.2788467E+000	1.960193081291354E+001
1.2188132E+000	1.343205397469654E+001
1.2687902E+000	1.837835537657443E+001
1.2088407E+000	1.257673294690190E+001
1.2588292E+000	1.727876846157775E+001
1.1988300E+000	1.177057322677297E+001
1.2488338E+000	1.618206549663932E+001
1.1887048E+000	1.101977418393503E+001
1.2387697E+000	1.520807419991007E+001
1.1787018E+000	1.032612047390062E+001
1.2289079E+000	1.423623310789768E+001
1.1687560E+000	9.680084306366588E+000
1.2188591E+000	1.338607346281711E+001
1.1587567E+000	9.086703456178000E+000
1.2088255E+000	1.252922348100312E+001
1.1487614E+000	8.522502587766070E+000
1.1987194E+000	1.178735886787882E+001
1.1387392E+000	8.012990883418489E+000
1.1888461E+000	1.104345891913589E+001
1.1287401E+000	7.524716503766115E+000
1.1786712E+000	1.041056722524215E+001
1.1187599E+000	7.085891957185694E+000
1.1687064E+000	9.760936912225205E+000
1.1087607E+000	6.655323505401611E+000
1.1587110E+000	9.213209405237308E+000
1.0987767E+000	6.274946105723480E+000
1.1486926E+000	8.643567240968039E+000
1.0887775E+000	5.893796473133319E+000
1.1387737E+000	8.170549626253077E+000
1.0787438E+000	5.563688015451220E+000
1.1287248E+000	7.669496818464609E+000
1.0688248E+000	5.223242136896872E+000
1.1188363E+000	7.258769502445143E+000
1.0586920E+000	4.938311644962852E+000
1.1087111E+000	6.819352159694749E+000
1.0487577E+000	4.632495734156393E+000
1.0987653E+000	6.455682073320645E+000
1.0388844E+000	4.382913015326672E+000
1.0887585E+000	6.066845553261885E+000
1.0288279E+000	4.109177939745834E+000
1.0787438E+000	5.748415849646740E+000
1.0187638E+000	3.891130058132873E+000
1.0687867E+000	5.399822643824983E+000
1.0087265E+000	3.641391194596579E+000
1.0587951E+000	5.119164904769587E+000
9.9870425E-001	3.451775443797210E+000
1.0487882E+000	4.808078804794622E+000
9.8883486E-001	3.225338823941286E+000
1.0387814E+000	4.555977821350098E+000
9.7876304E-001	3.060335110644903E+000
1.0288050E+000	4.280223340404277E+000
9.6871036E-001	2.851400968979817E+000
1.0187409E+000	4.054192212163173E+000
9.5881045E-001	2.708584946029042E+000
1.0088180E+000	3.802356340447247E+000
9.4886082E-001	2.515944257074472E+000
9.9879211E-001	3.599253557166271E+000
9.3871653E-001	2.391059194292339E+000
9.8879284E-001	3.373409451270589E+000
9.2874408E-001	2.215328377120350E+000
9.7871727E-001	3.192002977643693E+000
9.1889751E-001	2.107625708288076E+000
9.6876383E-001	2.989048023613131E+000
9.0879142E-001	1.943269530121160E+000
9.5871502E-001	2.824293900509268E+000
8.9880747E-001	1.851798310571787E+000
9.4877684E-001	2.642918693776025E+000
8.8879293E-001	1.699034518125107E+000
9.3880439E-001	2.492875765781012E+000
8.7877464E-001	1.623069816706128E+000
9.2881656E-001	2.331824847630088E+000
8.6876398E-001	1.481540108213618E+000
9.1880208E-001	2.197904153745998E+000
8.5881817E-001	1.417464210062604E+000
9.0875703E-001	2.052266130642015E+000
8.4886098E-001	1.288088657418076E+000
8.9878839E-001	1.929946023590709E+000
8.3883882E-001	1.236315111724698E+000
8.8878149E-001	1.799424429329074E+000
8.2882434E-001	1.113558394568306E+000
8.7881279E-001	1.689554564806880E+000
8.1879836E-001	1.072028731813235E+000
8.6886704E-001	1.573829879566115E+000
8.0881822E-001	9.569044684877202E-001
8.5879910E-001	1.473837560536911E+000
7.9871589E-001	9.267259106344108E-001
8.4886479E-001	1.373120337116474E+000
7.8891140E-001	8.192026493500686E-001
8.3880442E-001	1.284346587803899E+000
7.7877474E-001	7.959704070675109E-001
8.2891977E-001	1.195058323899094E+000
7.6872969E-001	6.951127976787319E-001
8.1882131E-001	1.114259989894165E+000
7.5861591E-001	6.810409073926955E-001
8.0873042E-001	1.034989701241863E+000
7.4870461E-001	5.875505780687138E-001
7.9870445E-001	9.631568570526277E-001
7.3877406E-001	5.801599597444340E-001
7.8889996E-001	8.957443407603662E-001
7.2878247E-001	4.914720210493826E-001
7.7865642E-001	8.286437051636817E-001
7.1871835E-001	4.907002084109249E-001
7.6863426E-001	7.729018549529876E-001
7.0875728E-001	4.068691955537211E-001
7.5875342E-001	7.121627647049564E-001
6.9881910E-001	4.102136961051386E-001
7.4866641E-001	6.655267562185010E-001
6.8877792E-001	3.322843118589756E-001
7.3872066E-001	6.083348551575014E-001
6.7876726E-001	3.404623555893801E-001
7.2880924E-001	5.702277482772358E-001
6.6879094E-001	2.654019201896629E-001
7.1877182E-001	5.185632730016903E-001
6.5877646E-001	2.778990007176689E-001
7.0875347E-001	4.893592693367781E-001
6.4877337E-001	2.046238810432199E-001
6.9871610E-001	4.409067776738373E-001
6.3883144E-001	2.214399719116639E-001
6.8879706E-001	4.183449866820350E-001
6.2875587E-001	1.522421639184564E-001
6.7877495E-001	3.740244075960035E-001
6.1879867E-001	1.717556949172696E-001
6.6878331E-001	3.586115952657192E-001
6.0877275E-001	1.038442400037026E-001
6.5881085E-001	3.158268332481384E-001
5.9877729E-001	1.285889144150578E-001
6.4881921E-001	3.066118736656342E-001
5.8867496E-001	6.351523146945601E-002
6.3880086E-001	2.672729762841244E-001
5.7880557E-001	8.942153517689011E-002
6.2886661E-001	2.642169293700433E-001
5.6878722E-001	2.757540831760485E-002
6.1881393E-001	2.238801267682290E-001
5.5880320E-001	5.278006264445728E-002
6.0872686E-001	2.274429414953500E-001
5.4880786E-001	-5.776125562320253E-003
5.9877729E-001	1.900998180618092E-001
5.3872085E-001	2.025491053390560E-002
5.8880097E-001	1.981999284150649E-001
5.2877510E-001	-3.927578744882415E-002
5.7870626E-001	1.614103177372290E-001
5.1881021E-001	-1.438297375612563E-002
5.6872237E-001	1.742972001737477E-001
5.0885296E-001	-7.185551687618907E-002
5.5881858E-001	1.381079001086096E-001
4.9868959E-001	-4.972250618952889E-002
5.4874301E-001	1.558361477693733E-001
4.8887363E-001	-1.056202410587244E-001
5.3891176E-001	1.211047073712155E-001
4.7884002E-001	-8.708901338431319E-002
5.2885526E-001	1.412029444259038E-001
4.6875674E-001	-1.450916808478687E-001
5.1882166E-001	1.054424269466984E-001
4.5878816E-001	-1.289304453803570E-001
5.0883776E-001	1.281523398902951E-001
4.4880792E-001	-1.899112073742613E-001
4.9887669E-001	9.151867305745864E-002
4.3880108E-001	-1.780066277299612E-001
4.8878959E-001	1.160840493988016E-001
4.2880192E-001	-2.387379216296335E-001
4.7878656E-001	7.793014306499035E-002
4.1883326E-001	-2.319241680052819E-001
4.6882930E-001	1.038910127720054E-001
4.0879583E-001	-2.951034100688235E-001
4.5879957E-001	6.172993623328438E-002
3.9888057E-001	-2.920785588877544E-001
4.4894543E-001	8.736337576897779E-002
3.8880882E-001	-3.565597388209127E-001
4.3883553E-001	4.304278440469378E-002
3.7890884E-001	-3.581267607455351E-001
4.2884389E-001	6.820066341636127E-002
3.6884475E-001	-4.222960952593366E-001
4.1879508E-001	2.168938582668040E-002
3.5870805E-001	-4.250013341709078E-001
4.0894848E-001	4.667575008055302E-002
3.4883863E-001	-4.859119227954327E-001
3.9882717E-001	-2.416024483474239E-003
3.3876306E-001	-4.850855445375248E-001
3.8870198E-001	2.349027417296050E-002
3.2871413E-001	-5.408429393962946E-001
3.7888974E-001	-2.636551554240552E-002
3.1881043E-001	-5.356585882147966E-001
3.6879507E-001	1.279306608698881E-003
3.0879590E-001	-5.813824558744625E-001
3.5880351E-001	-4.744605634112642E-002
2.9879284E-001	-5.703588079433053E-001
3.4876615E-001	-1.697126535368537E-002
2.8878981E-001	-6.072809513734327E-001
3.3875161E-001	-6.502617082121426E-002
2.7884403E-001	-5.874633606599318E-001
3.2878289E-001	-2.867314784920642E-002
2.6882577E-001	-6.142350605555951E-001
3.1885239E-001	-7.350827700325424E-002
2.5883034E-001	-5.882585754199905E-001
3.0882648E-001	-3.565841633826494E-002
2.4885018E-001	-6.068599929614944E-001
2.9883105E-001	-7.882519104346938E-002
2.3880136E-001	-5.735396012967957E-001
2.8874022E-001	-3.695256291527529E-002
2.2880591E-001	-5.856469322224052E-001
2.7887079E-001	-7.817032256600809E-002
2.1874940E-001	-5.485376606182184E-001
2.6875705E-001	-3.479305286036462E-002
2.0870058E-001	-5.576122536951180E-001
2.5888380E-001	-7.645518530388284E-002
1.9886935E-001	-5.186242011128641E-001
2.4876615E-001	-3.113670244204755E-002
1.8878233E-001	-5.244478400872694E-001
2.3887391E-001	-7.302492195550275E-002
1.7889383E-001	-4.872996162395089E-001
2.2884798E-001	-2.603808096705046E-002
1.6889071E-001	-4.945889492424174E-001
2.1886402E-001	-6.906452683769931E-002
1.5873884E-001	-4.592883848414131E-001
2.0877314E-001	-2.235054621373170E-002
1.4893436E-001	-4.673261137641207E-001
1.9886555E-001	-6.560307600516457E-002
1.3880910E-001	-4.337407107255897E-001
1.8887010E-001	-1.919314220585691E-002
1.2890531E-001	-4.418330070923790E-001
1.7885566E-001	-6.223517819782909E-002
1.1891755E-001	-4.124730490908333E-001
1.6881056E-001	-1.515478301170875E-002
1.0898319E-001	-4.217815435662562E-001
1.5886866E-001	-6.020040677062100E-002
9.8869413E-002	-3.974890283175885E-001
1.4883116E-001	-1.400876338255107E-002
8.8996194E-002	-4.050278365612030E-001
1.3882813E-001	-6.011465089205581E-002
7.8867204E-002	-3.824426367574807E-001
1.2887855E-001	-1.302645981893283E-002
6.8967216E-002	-3.917277576972040E-001
1.1879534E-001	-5.980280657507930E-002
5.8876403E-002	-3.721518656428984E-001
1.0891071E-001	-1.263665664484916E-002
4.8880965E-002	-3.811095119739067E-001
9.8777838E-002	-6.092543839191905E-002
3.8877919E-002	-3.638412544921952E-001
8.8862561E-002	-1.328372927287558E-002
2.8878679E-002	-3.725884410799765E-001
7.8909181E-002	-6.225856454396733E-002
1.8963480E-002	-3.579474505113112E-001
6.8852678E-002	-1.517817187532830E-002
8.8268081E-003	-3.666088453360974E-001
5.8903098E-002	-6.328764785917440E-002
-1.0845889E-003	-3.527240734927509E-001
4.8968732E-002	-1.638656168788843E-002
-1.1068617E-002	-3.611126487352414E-001
3.8877919E-002	-6.621896308295594E-002
-2.1128930E-002	-3.496056594410719E-001
2.8882483E-002	-1.897485215663530E-002
-3.1036450E-002	-3.573081615019831E-001
1.8913817E-002	-6.949330843528924E-002
-4.1161712E-002	-3.489585792531773E-001
8.8840770E-003	-2.235834195031505E-002
-5.1202934E-002	-3.551096630339720E-001
-1.0921950E-003	-7.152028617506123E-002
-6.1240356E-002	-3.490989196057223E-001
-1.1091510E-002	-2.577301483050141E-002
-7.1197607E-002	-3.529735463006158E-001
-2.1174716E-002	-7.458413331484309E-002
-8.0998272E-002	-3.487247046159254E-001
-3.1051736E-002	-2.873551741014330E-002
-9.1386989E-002	-3.521237738278447E-001
-4.1054778E-002	-7.789745942062261E-002
-1.0121435E-001	-3.500734366932692E-001
-5.1061701E-002	-3.119907144229023E-002
-1.1126325E-001	-3.525213793832425E-001
-6.1228871E-002	-8.093012283955303E-002
-1.2134645E-001	-3.534257229493587E-001
-7.1228184E-002	-3.431749435103670E-002
-1.3120058E-001	-3.546419168005184E-001
-8.1166200E-002	-8.322995939120956E-002
-1.4114636E-001	-3.596781534808025E-001
-9.1092966E-002	-3.786470258266350E-002
-1.5126014E-001	-3.656031495454360E-001
-1.0120674E-001	-8.633279336654409E-002
-1.6117153E-001	-3.783419199135838E-001
-1.1125176E-001	-3.986828833134198E-002
-1.7113639E-001	-3.896539977618634E-001
-1.2114407E-001	-8.839874562560301E-002
-1.8101342E-001	-4.162931454424955E-001
-1.3115092E-001	-4.553602175901134E-002
-1.9114628E-001	-4.452476969787060E-001
-1.4115776E-001	-9.552434406110222E-002
-2.0152605E-001	-4.999370404652188E-001
-1.5158720E-001	-5.498484324435804E-002
-2.1147564E-001	-5.642545393535077E-001
-1.6154443E-001	-1.091986272712144E-001
-2.2152832E-001	-6.694467335331193E-001
-1.7148638E-001	-7.719581026812006E-002
-2.3152754E-001	-8.023226845021151E-001
-1.8150470E-001	-1.443978370148311E-001
-2.4150768E-001	-9.949866849548972E-001
-1.9142756E-001	-1.276596945767500E-001
-2.5152218E-001	-1.226818111478066E+000
-2.0143825E-001	-2.182342917943489E-001
-2.6152521E-001	-1.530630396336932E+000
-2.1148710E-001	-2.344422833043702E-001
-2.7148247E-001	-1.874654864778325E+000
-2.2149014E-001	-3.661099191831081E-001
-2.8147405E-001	-2.276744351095084E+000
-2.3150846E-001	-4.321191146665697E-001
-2.9147708E-001	-2.688399460850931E+000
-2.4145424E-001	-6.143675483002955E-001
-3.0141523E-001	-3.115826241824095E+000
-2.5141147E-001	-7.292502838738137E-001
-3.1147173E-001	-3.496507630056265E+000
-2.6148704E-001	-9.527632448138030E-001
-3.2147473E-001	-3.832580186882801E+000
-2.7149773E-001	-1.087432372326754E+000
-3.3153889E-001	-4.057145653938761E+000
-2.8146642E-001	-1.298838004773978E+000
-3.4143883E-001	-4.195291966808087E+000
-2.9150000E-001	-1.393295120219797E+000
-3.5144570E-001	-4.186591547362660E+000
-3.0152977E-001	-1.537397452763152E+000
-3.6148691E-001	-4.109870531121082E+000
-3.1143734E-001	-1.557612560233292E+000
-3.7147850E-001	-3.923825059618270E+000
-3.2145947E-001	-1.629203737998495E+000
-3.8144338E-001	-3.741062232426238E+000
-3.3148164E-001	-1.597161893941918E+000
-3.9142734E-001	-3.507913253745258E+000
-3.4140828E-001	-1.632018077130221E+000
-4.0145329E-001	-3.332556393681742E+000
-3.5141897E-001	-1.583284966799678E+000
-4.1142961E-001	-3.122335823214783E+000
-3.6138386E-001	-1.607686682623260E+000
-4.2139447E-001	-2.989038880990478E+000
-3.7149379E-001	-1.554720280121784E+000
-4.3147767E-001	-2.809947806961681E+000
-3.8142428E-001	-1.572814868420970E+000
-4.4143492E-001	-2.712286564768576E+000
-3.9145407E-001	-1.515412464433787E+000
-4.5147231E-001	-2.558485984802246E+000
-4.0142274E-001	-1.524689793586731E+000
-4.6156317E-001	-2.486255587363733E+000
-4.1139525E-001	-1.465517698502062E+000
-4.7133717E-001	-2.348273218894494E+000
-4.2144027E-001	-1.465907590729850E+000
-4.8148528E-001	-2.299173627580917E+000
-4.3146241E-001	-1.405176225973637E+000
-4.9155322E-001	-2.171201448051297E+000
-4.4145399E-001	-1.401613522549070E+000
-5.0158298E-001	-2.136446466251296E+000
-4.5144942E-001	-1.339868664741516E+000
-5.1147914E-001	-2.019450978356964E+000
-4.6141428E-001	-1.330887663121127E+000
-5.2156234E-001	-1.997972889822364E+000
-4.7144020E-001	-1.272752384750211E+000
-5.3151190E-001	-1.889054171893062E+000
-4.8161507E-001	-1.262204318630452E+000
-5.4150355E-001	-1.880275799303643E+000
-4.9153033E-001	-1.205729759469325E+000
-5.5154854E-001	-1.777664092122292E+000
-5.0151807E-001	-1.192905168144071E+000
-5.6162035E-001	-1.781055413946817E+000
-5.1155931E-001	-1.142971522954046E+000
-5.7142866E-001	-1.685795360681965E+000
-5.2146304E-001	-1.130185983618912E+000
-5.8145082E-001	-1.697388091865850E+000
-5.3154248E-001	-1.084485404345454E+000
-5.9155309E-001	-1.612052372523721E+000
-5.4153788E-001	-1.073703534749090E+000
-6.0147595E-001	-1.631979156513609E+000
-5.5144930E-001	-1.032220722461233E+000
-6.1152482E-001	-1.552934989637259E+000
-5.6147146E-001	-1.020776068677709E+000
-6.2148589E-001	-1.581413867522259E+000
-5.7151264E-001	-9.852884083378068E-001
-6.3151944E-001	-1.507047353958605E+000
-5.8151567E-001	-9.743427354462302E-001
-6.4160269E-001	-1.544172162912330E+000
-5.9151107E-001	-9.451464718701885E-001
-6.5142626E-001	-1.475075704710825E+000
-6.0155994E-001	-9.346763734914827E-001
-6.6147131E-001	-1.516987389447742E+000
-6.1149806E-001	-9.136659855745286E-001
-6.7149341E-001	-1.453005133842943E+000
-6.2151259E-001	-9.036091116009928E-001
-6.8147737E-001	-1.500841663808245E+000
-6.3146216E-001	-8.880559424964751E-001
-6.9148427E-001	-1.439572492424322E+000
-6.4157975E-001	-8.800727749357418E-001
-7.0152926E-001	-1.490285797994964E+000
-6.5153694E-001	-8.693219873369964E-001
-7.1141392E-001	-1.431979138024001E+000
-6.6143310E-001	-8.637088330424554E-001
-7.2144759E-001	-1.485015686677428E+000
-6.7150873E-001	-8.581502522741049E-001
-7.3143917E-001	-1.429289416391022E+000
-6.8150032E-001	-8.550864336441979E-001
-7.4144983E-001	-1.487713110690215E+000
-6.9148427E-001	-8.532621179308215E-001
-7.5146812E-001	-1.433818989870499E+000
-7.0141476E-001	-8.513443117239046E-001
-7.6143301E-001	-1.494916694504875E+000
-7.1145219E-001	-8.531452198417835E-001
-7.7143604E-001	-1.446183552547377E+000
-7.2147048E-001	-8.544471446348698E-001
-7.8139710E-001	-1.510610188756672E+000
-7.3147357E-001	-8.575889456028841E-001
-7.9144597E-001	-1.467240720379110E+000
-7.4144989E-001	-8.620093318880828E-001
-8.0139941E-001	-1.537452011692281E+000
-7.5149101E-001	-8.691426904834056E-001
-8.1134897E-001	-1.498791337013245E+000
-7.6142538E-001	-8.769621824731633E-001
-8.2150471E-001	-1.575278357583649E+000
-7.7141315E-001	-8.886796515815121E-001
-8.3148485E-001	-1.543836919628845E+000
-7.8151166E-001	-9.001788168537370E-001
-8.4141535E-001	-1.627574402458816E+000
-7.9141927E-001	-9.163634448635349E-001
-8.5134965E-001	-1.605067092545177E+000
-8.0143374E-001	-9.340839130537866E-001
-8.6141384E-001	-1.699812677441811E+000
-8.1141007E-001	-9.567080237427534E-001
-8.7140918E-001	-1.690278065447905E+000
-8.2135963E-001	-9.775624725283416E-001
-8.8136262E-001	-1.799687959709948E+000
-8.3142376E-001	-1.006805542780429E+000
-8.9138478E-001	-1.807008390523949E+000
-8.4146112E-001	-1.036477329779644E+000
-9.0151381E-001	-1.932408031152221E+000
-8.5136878E-001	-1.070842285545504E+000
-9.1152447E-001	-1.953847169876099E+000
-8.6139470E-001	-1.107210996199627E+000
-9.2152375E-001	-2.096125339975163E+000
-8.7143594E-001	-1.151375641628188E+000
-9.3155342E-001	-2.131285467926336E+000
-8.8144666E-001	-1.195501303186223E+000
-9.4152212E-001	-2.282895394733977E+000
-8.9133132E-001	-1.248990041869028E+000
-9.5147556E-001	-2.324744711116868E+000
-9.0149474E-001	-1.303297422370132E+000
-9.6148622E-001	-2.475434760658109E+000
-9.1152829E-001	-1.364761554465005E+000
-9.7150838E-001	-2.509394334287066E+000
-9.2158478E-001	-1.427231287469670E+000
-9.8151904E-001	-2.646090356671095E+000
-9.3150383E-001	-1.493528915911305E+000
-9.9144953E-001	-2.659943828777391E+000
-9.4153357E-001	-1.558836484441953E+000
-1.0015252E+000	-2.775364676300359E+000
-9.5157105E-001	-1.624674244802833E+000
-1.0114976E+000	-2.764793035935384E+000
-9.6152818E-001	-1.685662807250509E+000
-1.0215160E+000	-2.856279747826719E+000
-9.7156560E-001	-1.747103477010922E+000
-1.0314541E+000	-2.823388318626249E+000
-9.8160303E-001	-1.802938891916860E+000
-1.0414534E+000	-2.894706726074219E+000
-9.9148011E-001	-1.851734394929847E+000
-1.0515289E+000	-2.846332185122435E+000
-1.0015328E+000	-1.895704135602835E+000
-1.0615205E+000	-2.903126444135395E+000
-1.0115243E+000	-1.932150753176945E+000
-1.0714509E+000	-2.840843589938423E+000
-1.0214586E+000	-1.965447759141728E+000
-1.0815343E+000	-2.890707215484309E+000
-1.0314960E+000	-1.990730314838643E+000
-1.0914724E+000	-2.822187764304033E+000
-1.0414839E+000	-2.010906513856384E+000
-1.1015135E+000	-2.868839327169930E+000
-1.0514067E+000	-2.027519985121124E+000
-1.1115052E+000	-2.796585535516545E+000
-1.0614556E+000	-2.038730801368249E+000
-1.1213784E+000	-2.839339013002357E+000
-1.0714320E+000	-2.044429540634155E+000
-1.1315647E+000	-2.766835558171181E+000
-1.0814426E+000	-2.048545873894984E+000
-1.1414189E+000	-2.814056342961841E+000
-1.0915220E+000	-2.049933623294443E+000
-1.1514333E+000	-2.746269610463365E+000
-1.1013800E+000	-2.051523948202329E+000
-1.1614441E+000	-2.797661246085656E+000
-1.1113906E+000	-2.052428299066971E+000
-1.1714432E+000	-2.734895132025898E+000
-1.1214776E+000	-2.052646666157003E+000
-1.1813546E+000	-2.793061499692956E+000
-1.1314540E+000	-2.052888446924637E+000
-1.1914684E+000	-2.734302666722520E+000
-1.1415029E+000	-2.056786488513559E+000
-1.2014065E+000	-2.794277818835511E+000
-1.1514791E+000	-2.053036431876981E+000
-1.2114134E+000	-2.737818839598681E+000
-1.1614288E+000	-2.052303572090304E+000
-1.2213324E+000	-2.797411816460752E+000
-1.1714318E+000	-2.051235507945627E+000