Ewe/V	<I>/mA	
1.2788086E+000	1.942227172851563E+001
1.3286978E+000	2.582381128475362E+001
1.2688246E+000	1.804357879840774E+001
1.3188437E+000	2.414519380733663E+001
1.2587719E+000	1.673232859175725E+001
1.3087910E+000	2.259038112968796E+001
1.2488300E+000	1.553520821577661E+001
1.2987880E+000	2.112750976764602E+001
1.2388194E+000	1.441924539780774E+001
1.2887505E+000	1.973372811829017E+001
1.2288773E+000	1.337430251670989E+001
1.2787169E+000	1.843909773921331E+001
1.2187369E+000	1.242517964571516E+001
1.2687559E+000	1.722315966372457E+001
1.2087758E+000	1.154884054802901E+001
1.2589170E+000	1.608489055507229E+001
1.1987461E+000	1.074449565079038E+001
1.2487918E+000	1.501642816429896E+001
1.1886400E+000	9.999681119097772E+000
1.2387964E+000	1.401940836495911E+001
1.1787133E+000	9.317591913488513E+000
1.2288010E+000	1.308120927747511E+001
1.1687140E+000	8.689388338303722E+000
1.2188438E+000	1.221383386574044E+001
1.1586957E+000	8.113893445753888E+000
1.2087452E+000	1.141539611563775E+001
1.1486697E+000	7.583665961461350E+000
1.1986773E+000	1.066703732597907E+001
1.1387316E+000	7.097507688383388E+000
1.1887354E+000	9.979220447161339E+000
1.1287858E+000	6.644710875504842E+000
1.1787477E+000	9.344833134025919E+000
1.1187179E+000	6.229512306238640E+000
1.1687216E+000	8.756899025266520E+000
1.1087377E+000	5.842587534165538E+000
1.1586804E+000	8.216584603518044E+000
1.0987691E+000	5.485542303679005E+000
1.1487002E+000	7.716369051017509E+000
1.0887049E+000	5.158701764037275E+000
1.1387584E+000	7.252759052428189E+000
1.0787973E+000	4.848815362185036E+000
1.1287668E+000	6.822685336435057E+000
1.0687599E+000	4.558280647985185E+000
1.1187789E+000	6.418254043882243E+000
1.0587379E+000	4.285618583098142E+000
1.1086957E+000	6.046062643164817E+000
1.0487005E+000	4.035092533818926E+000
1.0987767E+000	5.696776876386427E+000
1.0387431E+000	3.797083789939116E+000
1.0886935E+000	5.366935632086744E+000
1.0288012E+000	3.574203301739217E+000
1.0787706E+000	5.061390819928501E+000
1.0186989E+000	3.363197610867733E+000
1.0687714E+000	4.768973846309231E+000
1.0087799E+000	3.164929626793262E+000
1.0586958E+000	4.495165824890137E+000
9.9868518E-001	2.976336679711245E+000
1.0487157E+000	4.233984517735358E+000
9.8872793E-001	2.800199889189358E+000
1.0386821E+000	3.991478117885961E+000
9.7872871E-001	2.632697970661894E+000
1.0286752E+000	3.762704334511660E+000
9.6879059E-001	2.474891703649860E+000
1.0188059E+000	3.544139341013320E+000
9.5884860E-001	2.323996725461338E+000
1.0087570E+000	3.337474158268101E+000
9.4876540E-001	2.182228857318297E+000
9.9877679E-001	3.143125999842258E+000
9.3873560E-001	2.047102737110968E+000
9.8883867E-001	2.957836073755423E+000
9.2878604E-001	1.918577727103070E+000
9.7877073E-001	2.781304850483572E+000
9.1867989E-001	1.797591649143897E+000
9.6872950E-001	2.613724487506790E+000
9.0882576E-001	1.682703476078462E+000
9.5871115E-001	2.456915672251718E+000
8.9878833E-001	1.574251517554782E+000
9.4875777E-001	2.305428939149866E+000
8.8893044E-001	1.470431843340791E+000
9.3883109E-001	2.161907472357843E+000
8.7872118E-001	1.371722531634450E+000
9.2874789E-001	2.025248484895716E+000
8.6888611E-001	1.279352064953734E+000
9.1884023E-001	1.897176242032588E+000
8.5883725E-001	1.191933522950734E+000
9.0886778E-001	1.774688982805664E+000
8.4883040E-001	1.109192537945624E+000
8.9883035E-001	1.659091223154636E+000
8.3884645E-001	1.031156397023738E+000
8.8873571E-001	1.549439832864216E+000
8.2888156E-001	9.572060202920669E-001
8.7881666E-001	1.445835917201261E+000
8.1881362E-001	8.879492385497940E-001
8.6874104E-001	1.347469771934659E+000
8.0885261E-001	8.224502671633331E-001
8.5880291E-001	1.255285908054830E+000
7.9883432E-001	7.608636242664399E-001
8.4879225E-001	1.168061056673920E+000
7.8881216E-001	7.031932828442145E-001
8.3884645E-001	1.085219534817121E+000
7.7874804E-001	6.480514505841084E-001
8.2885867E-001	1.007427719649888E+000
7.6876020E-001	5.971572939923266E-001
8.1884038E-001	9.341503215941369E-001
7.5877249E-001	5.493014628524016E-001
8.0881822E-001	8.652177788563904E-001
7.4867785E-001	5.044270047288855E-001
7.9879612E-001	8.006561430084784E-001
7.3860991E-001	4.623774517056165E-001
7.8883505E-001	7.396518623592048E-001
7.2878247E-001	4.218150296353338E-001
7.7870601E-001	6.827968966881960E-001
7.1879083E-001	3.860108220814078E-001
7.6868385E-001	6.301239310510898E-001
7.0865035E-001	3.520250389512798E-001
7.5865030E-001	5.804243814076804E-001
6.9871992E-001	3.197170235463322E-001
7.4877328E-001	5.340226967603163E-001
6.8881238E-001	2.893587555119526E-001
7.3871684E-001	4.906196361345945E-001
6.7878252E-001	2.612906585860726E-001
7.2873288E-001	4.500459894439235E-001
6.6871077E-001	2.346858223345105E-001
7.1873367E-001	4.114643161659997E-001
6.5879554E-001	2.097255999086707E-001
7.0874202E-001	3.761347581613932E-001
6.4871615E-001	1.868087783554532E-001
6.9871229E-001	3.428653685857128E-001
6.3871312E-001	1.652172004051553E-001
6.8868625E-001	3.122476161710468E-001
6.2880933E-001	1.454725095274432E-001
6.7872530E-001	2.835589302888768E-001
6.1879480E-001	1.270761204180338E-001
6.6877180E-001	2.567155355254546E-001
6.0878414E-001	1.100964046866688E-001
6.5871531E-001	2.320098604587528E-001
5.9876585E-001	9.448186594326757E-002
6.4872766E-001	2.096136546884939E-001
5.8883530E-001	8.064714624293590E-002
6.3870931E-001	1.891693583387410E-001
5.7880175E-001	6.766809698268272E-002
6.2878257E-001	1.706865026264000E-001
5.6879866E-001	5.617546246985330E-002
6.1883301E-001	1.535325183576306E-001
5.5883759E-001	4.557135986435590E-002
6.0867721E-001	1.385991245705560E-001
5.4870862E-001	3.581897763994868E-002
5.9879643E-001	1.249363563017339E-001
5.3885829E-001	2.629651121208475E-002
5.8879715E-001	1.129088137323493E-001
5.2877510E-001	1.735772818162346E-002
5.7879412E-001	1.023210240219601E-001
5.1889038E-001	8.995143700906056E-003
5.6872231E-001	9.298776011198562E-002
5.0875753E-001	7.270499707326059E-004
5.5876511E-001	8.472716023787757E-002
4.9885371E-001	-7.645957842654247E-003
5.4881549E-001	7.748663474787149E-002
4.8881248E-001	-1.653184253446427E-002
5.3875893E-001	7.094918070546041E-002
4.7883615E-001	-2.506152237566728E-002
5.2878267E-001	6.568254731496825E-002
4.6880260E-001	-3.411166759405211E-002
5.1876438E-001	6.072756796088430E-002
4.5893317E-001	-4.318496495306445E-002
5.0890261E-001	5.698633076783421E-002
4.4877744E-001	-5.278476971565493E-002
4.9874297E-001	5.331046236617276E-002
4.3880117E-001	-6.304898616296573E-002
4.8880109E-001	4.988416628480352E-002
4.2879805E-001	-7.359581694796402E-002
4.7886673E-001	4.641480792609859E-002
4.1887903E-001	-8.476911236020124E-002
4.6888664E-001	4.300217287281885E-002
4.0887219E-001	-9.661504379566144E-002
4.5889881E-001	3.954589683007420E-002
3.9891875E-001	-1.083445231744786E-001
4.4890344E-001	3.564067247479036E-002
3.8894626E-001	-1.205668653182637E-001
4.3885455E-001	3.211338368234778E-002
3.7886307E-001	-1.320428414553997E-001
4.2890498E-001	2.769761474607263E-002
3.6895546E-001	-1.428401152424466E-001
4.1884086E-001	2.363883013253898E-002
3.5869664E-001	-1.526414573389965E-001
4.0888739E-001	1.950177295659750E-002
3.4881574E-001	-1.604156966339674E-001
3.9886147E-001	1.537263375548747E-002
3.3875543E-001	-1.661246778653158E-001
3.8886604E-001	1.229229264442394E-002
3.2874852E-001	-1.692212841763403E-001
3.7886685E-001	9.572302612679578E-003
3.1885248E-001	-1.715538775091929E-001
3.6880276E-001	6.633709427678575E-003
3.0878827E-001	-1.715301888075886E-001
3.5884169E-001	5.384016170286693E-003
2.9874328E-001	-1.697776914629715E-001
3.4880045E-001	4.634523859081037E-003
2.8881657E-001	-1.668463182074346E-001
3.3880508E-001	4.522679491579182E-003
2.7868372E-001	-1.631683465463438E-001
3.2885545E-001	4.640013762805234E-003
2.6883718E-001	-1.583687258970659E-001
3.1876844E-001	4.792892457169497E-003
2.5879604E-001	-1.533091082083469E-001
3.0876160E-001	5.724938226411180E-003
2.4877003E-001	-1.474806862753750E-001
2.9876235E-001	6.507191818017845E-003
2.3874789E-001	-1.421127604530348E-001
2.8886622E-001	7.072941692305462E-003
2.2885171E-001	-1.361696018485836E-001
2.7891657E-001	7.799109000285133E-003
2.1877998E-001	-1.308615462274743E-001
2.6881811E-001	8.178003877671189E-003
2.0886852E-001	-1.263763355893017E-001
2.5882652E-001	8.423929865586113E-003
1.9889224E-001	-1.217028684173989E-001
2.4872424E-001	8.445762719038491E-003
1.8885863E-001	-1.177698432017640E-001
2.3874409E-001	8.451910308039490E-003
1.7883657E-001	-1.144126625546558E-001
2.2884791E-001	8.541289548021858E-003
1.6883732E-001	-1.112721377848001E-001
2.1884106E-001	8.206995511319565E-003
1.5890683E-001	-1.085031191442187E-001
2.0880364E-001	7.439339255323529E-003
1.4882363E-001	-1.064496202184668E-001
1.9886555E-001	7.023280754181183E-003
1.3886249E-001	-1.039868878410353E-001
1.8876705E-001	7.020573719020692E-003
1.2886333E-001	-1.023554633192669E-001
1.7869525E-001	5.685548722379322E-003
1.1887550E-001	-1.012121523354228E-001
1.6887550E-001	5.066748266339622E-003
1.0877701E-001	-9.976884601822755E-002
1.5882660E-001	4.449921131630528E-003
9.8819822E-002	-9.963973002224569E-002
1.4880835E-001	2.898138645278527E-003
8.8923708E-002	-9.955290645755682E-002
1.3877852E-001	1.390982836053940E-003
7.8886218E-002	-9.963585584368928E-002
1.2887475E-001	1.070856082789748E-004
6.8791606E-002	-1.002619694548332E-001
1.1875716E-001	-2.250149395931296E-003
5.8811452E-002	-1.012765139538723E-001
1.0875799E-001	-4.064150743798622E-003
4.8838980E-002	-1.022502728892085E-001
9.8789319E-002	-5.853561796905209E-003
3.8923781E-002	-1.034483835594543E-001
8.8809177E-002	-8.210417179568885E-003
2.8981809E-002	-1.048220157228559E-001
7.8912988E-002	-9.819450555176523E-003
1.8921422E-002	-1.053212056343524E-001
6.8948127E-002	-1.137181502687498E-002
8.9107733E-003	-1.060735314146970E-001
5.8849633E-002	-1.286417081052382E-002
-1.1724317E-003	-1.068563889095326E-001
4.8888572E-002	-1.411042410675256E-002
-1.1171672E-002	-1.070002142759350E-001
3.8885601E-002	-1.485361724425823E-002
-2.1067783E-002	-1.071135005512778E-001
2.8939826E-002	-1.602657994799728E-002
-3.1154865E-002	-1.073644135073324E-001
1.8841259E-002	-1.668198793892910E-002
-4.1089229E-002	-1.075189357857833E-001
8.8382922E-003	-1.776610237952181E-002
-5.1012039E-002	-1.075772947526926E-001
-1.1762348E-003	-1.898559049072152E-002
-6.1148711E-002	-1.081915177059494E-001
-1.1083904E-002	-1.957423539812192E-002
-7.1151748E-002	-1.080319090740178E-001
-2.1102233E-002	-2.031062200044079E-002
-8.1124224E-002	-1.079798694823357E-001
-3.1032721E-002	-2.131327602035900E-002
-9.1108248E-002	-1.083323820339923E-001
-4.1188482E-002	-2.202368229095647E-002
-1.0116468E-001	-1.084292439731541E-001
-5.1187720E-002	-2.224744796453798E-002
-1.1114864E-001	-1.087330325648486E-001
-6.1179280E-002	-2.340578854969465E-002
-1.2120514E-001	-1.094573786025808E-001
-7.1205214E-002	-2.416173207715452E-002
-1.3112415E-001	-1.100576618402604E-001
-8.1181563E-002	-2.488296555234926E-002
-1.4110817E-001	-1.119716118601775E-001
-9.1165520E-002	-2.513736663255162E-002
-1.5115701E-001	-1.139589601399886E-001
-1.0124104E-001	-2.557121069495882E-002
-1.6114104E-001	-1.177327839151916E-001
-1.1121359E-001	-2.635652494386675E-002
-1.7112111E-001	-1.230380452725272E-001
-1.2116697E-001	-2.755306643859441E-002
-1.8116233E-001	-1.318664493051589E-001
-1.3118149E-001	-2.923905702858298E-002
-1.9110423E-001	-1.453829393382894E-001
-1.4121510E-001	-3.068390238878538E-002
-2.0157951E-001	-1.645175184043040E-001
-1.5149176E-001	-3.249188443967327E-002
-2.1145275E-001	-1.947083147551052E-001
-1.6148335E-001	-3.602352406975623E-002
-2.2145960E-001	-2.388030564942898E-001
-1.7158183E-001	-4.139891784336147E-002
-2.3150845E-001	-3.006415179628412E-001
-1.8150087E-001	-4.907641831988985E-002
-2.4152678E-001	-3.856627260217609E-001
-1.9150774E-001	-6.109637799148529E-002
-2.5143054E-001	-4.949065286986878E-001
-2.0143060E-001	-7.816696310082816E-002
-2.6147941E-001	-6.249563196636991E-001
-2.1145274E-001	-1.007944201643499E-001
-2.7145192E-001	-7.675926049813531E-001
-2.2148252E-001	-1.295678787772230E-001
-2.8148168E-001	-9.076724131375755E-001
-2.3144737E-001	-1.648827624439404E-001
-2.9150763E-001	-1.027173268479228E+000
-2.4156877E-001	-2.039132375788215E-001
-3.0149540E-001	-1.107773216354929E+000
-2.5151074E-001	-2.427628138996911E-001
-3.1148314E-001	-1.143425856994480E+000
-2.6146412E-001	-2.794051170349121E-001
-3.2141751E-001	-1.137989418396097E+000
-2.7147099E-001	-3.111233211905757E-001
-3.3141673E-001	-1.105932733081035E+000
-2.8142440E-001	-3.386295779256634E-001
-3.4145793E-001	-1.062247316568893E+000
-2.9145417E-001	-3.621847335471223E-001
-3.5148007E-001	-1.015914769756874E+000
-3.0138850E-001	-3.834948743021256E-001
-3.6142200E-001	-9.714670429956058E-001
-3.1147170E-001	-4.009310847876089E-001
-3.7146324E-001	-9.304230974999488E-001
-3.2144040E-001	-4.156401206720748E-001
-3.8147011E-001	-8.926783144868766E-001
-3.3142433E-001	-4.275433016533885E-001
-3.9140061E-001	-8.578392586960710E-001
-3.4149992E-001	-4.349539560197995E-001
-4.0149146E-001	-8.251860793063184E-001
-3.5138080E-001	-4.401429431722654E-001
-4.1136467E-001	-7.948797874103319E-001
-3.6147547E-001	-4.426315515641353E-001
-4.2146701E-001	-7.671814750361925E-001
-3.7154344E-001	-4.433922639351024E-001
-4.3140897E-001	-7.410747586496633E-001
-3.8135558E-001	-4.425700827939627E-001
-4.4143111E-001	-7.172570035157619E-001
-3.9147696E-001	-4.405922204848158E-001
-4.5139980E-001	-6.960447588503769E-001
-4.0144947E-001	-4.384466796521327E-001
-4.6137610E-001	-6.763076853278460E-001
-4.1140670E-001	-4.353423013987134E-001
-4.7142878E-001	-6.580743102837880E-001
-4.2144027E-001	-4.317817859697026E-001
-4.8153490E-001	-6.421638166667611E-001
-4.3138987E-001	-4.284365889647166E-001
-4.9149975E-001	-6.275420856002154E-001
-4.4140819E-001	-4.240523726734899E-001
-5.0152189E-001	-6.146391105178179E-001
-4.5143795E-001	-4.206271990640280E-001
-5.1150584E-001	-6.030147478280483E-001
-4.6139136E-001	-4.163287475409101E-001
-5.2149361E-001	-5.919886128791916E-001
-4.7147459E-001	-4.115655303790877E-001
-5.3155011E-001	-5.823203198957128E-001
-4.8153490E-001	-4.081732873490318E-001
-5.4148060E-001	-5.737806041509117E-001
-4.9154559E-001	-4.034902818550341E-001
-5.5152565E-001	-5.656524332153876E-001
-5.0147986E-001	-3.992760702474234E-001
-5.6141800E-001	-5.577190609167744E-001
-5.1154405E-001	-3.953201358286753E-001
-5.7151264E-001	-5.508844240611752E-001
-5.2146685E-001	-3.910540667985449E-001
-5.8150423E-001	-5.448714926937566E-001
-5.3146231E-001	-3.870166731591258E-001
-5.9150344E-001	-5.395325501233543E-001
-5.4149204E-001	-3.832416344952110E-001
-6.0147983E-001	-5.352993216735644E-001
-5.5151802E-001	-3.801367497996786E-001
-6.1150956E-001	-5.321496561268315E-001
-5.6150579E-001	-3.766253391243772E-001
-6.2144387E-001	-5.296049048963765E-001
-5.7147062E-001	-3.730772421849485E-001
-6.3149655E-001	-5.280250295108517E-001
-5.8146608E-001	-3.705104611172583E-001
-6.4142704E-001	-5.268316701153264E-001
-5.9146148E-001	-3.677180056145652E-001
-6.5154457E-001	-5.263773236448404E-001
-6.0148358E-001	-3.655577817105300E-001
-6.6147894E-001	-5.271215916469405E-001
-6.1144465E-001	-3.635743639327051E-001
-6.7145526E-001	-5.285901812133424E-001
-6.2144387E-001	-3.624731314103335E-001
-6.8150795E-001	-5.298956003015405E-001
-6.3141257E-001	-3.620726681308248E-001
-6.9142699E-001	-5.325622643461294E-001
-6.4144230E-001	-3.610129018887780E-001
-7.0147967E-001	-5.353426102376151E-001
-6.5144151E-001	-3.614381658320402E-001
-7.1142161E-001	-5.387928262846362E-001
-6.6145605E-001	-3.615656672724041E-001
-7.2147048E-001	-5.427949991052514E-001
-6.7144001E-001	-3.631718705426779E-001
-7.3142773E-001	-5.482083945874354E-001
-6.8139338E-001	-3.646414499014421E-001
-7.4143451E-001	-5.542364882317603E-001
-6.9148046E-001	-3.667579395881555E-001
-7.5149870E-001	-5.614005133805691E-001
-7.0141476E-001	-3.697507353807918E-001
-7.6145208E-001	-5.701100194691033E-001
-7.1139872E-001	-3.742692829757339E-001
-7.7142459E-001	-5.798316811094235E-001
-7.2152394E-001	-3.783367755792000E-001
-7.8151929E-001	-5.913397543477696E-001
-7.3142004E-001	-3.840896410263142E-001
-7.9137725E-001	-6.042538364201988E-001
-7.4142313E-001	-3.911013597289458E-001
-8.0148333E-001	-6.193635842658054E-001
-7.5148338E-001	-3.991723384288763E-001
-8.1143677E-001	-6.368185423857335E-001
-7.6143682E-001	-4.080978835260636E-001
-8.2144362E-001	-6.557741662524395E-001
-7.7144372E-001	-4.181922180763147E-001
-8.3146197E-001	-6.774169877664935E-001
-7.8149253E-001	-4.299264001530529E-001
-8.4140009E-001	-7.027688223794613E-001
-7.9143834E-001	-4.432604608946289E-001
-8.5150242E-001	-7.308159987658067E-001
-8.0142987E-001	-4.592776776149581E-001
-8.6144817E-001	-7.625539121248881E-001
-8.1149405E-001	-4.768348253325918E-001
-8.7139392E-001	-7.985604622506148E-001
-8.2140541E-001	-4.975066899463840E-001
-8.8141990E-001	-8.393987184328751E-001
-8.3140469E-001	-5.210985616342914E-001
-8.9144582E-001	-8.841600354933581E-001
-8.4143448E-001	-5.460031147034758E-001
-9.0153670E-001	-9.335540185700992E-001
-8.5134584E-001	-5.744886911468008E-001
-9.1146338E-001	-9.846657842200344E-001
-8.6139852E-001	-6.055326903892677E-001
-9.2156571E-001	-1.036722692432786E+000
-8.7146264E-001	-6.366474987655302E-001
-9.3142366E-001	-1.087629270869378E+000
-8.8149244E-001	-6.697822000017233E-001
-9.4147635E-001	-1.136226908260625E+000
-8.9136952E-001	-7.025343156018795E-001
-9.5145261E-001	-1.177195984006719E+000
-9.0151000E-001	-7.351981914596060E-001
-9.6156257E-001	-1.211607506733067E+000
-9.1158170E-001	-7.663084410673742E-001
-9.7145873E-001	-1.237594796332303E+000
-9.2158097E-001	-7.945433101117221E-001
-9.8151147E-001	-1.254871413407738E+000
-9.3156493E-001	-8.208997099604840E-001
-9.9151826E-001	-1.264265032793514E+000
-9.4161755E-001	-8.440212599489073E-001
-1.0014907E+000	-1.267054664378135E+000
-9.5152140E-001	-8.630150903929152E-001
-1.0114290E+000	-1.264171584552487E+000
-9.6154732E-001	-8.780684167186159E-001
-1.0214702E+000	-1.257649372745036E+000
-9.7151214E-001	-8.902638329575403E-001
-1.0315304E+000	-1.248819484615958E+000
-9.8152667E-001	-8.997603560125604E-001
-1.0415908E+000	-1.239026231481542E+000
-9.9146861E-001	-9.068373386433586E-001
-1.0514792E+000	-1.229663259935695E+000
-1.0014908E+000	-9.121429063626483E-001
-1.0614785E+000	-1.220877041090404E+000
-1.0114709E+000	-9.180131965125646E-001
-1.0715771E+000	-1.213292038993330E+000
-1.0214549E+000	-9.203297641893098E-001
-1.0814197E+000	-1.205674214868356E+000
-1.0314846E+000	-9.223789237192932E-001
-1.0915220E+000	-1.199042278409795E+000
-1.0415106E+000	-9.234963979152671E-001
-1.1015135E+000	-1.191010461737778E+000
-1.0514984E+000	-9.242758214078992E-001
-1.1114402E+000	-1.185248273097917E+000
-1.0614671E+000	-9.242335498727714E-001
-1.1214509E+000	-1.181484795564058E+000
-1.0714434E+000	-9.232909489941132E-001
-1.1315112E+000	-1.177562022051275E+000
-1.0814502E+000	-9.241893109896342E-001
-1.1414264E+000	-1.176567361844299E+000
-1.0915334E+000	-9.251817618774272E-001
-1.1513914E+000	-1.176921232646665E+000
-1.1014869E+000	-9.269412886227997E-001
-1.1614937E+000	-1.178825477890621E+000
-1.1115395E+000	-9.293324769727462E-001
-1.1714165E+000	-1.181497450695922E+000
-1.1214280E+000	-9.315931654923801E-001
-1.1813585E+000	-1.183421399419672E+000
-1.1313776E+000	-9.348940675621797E-001
-1.1915448E+000	-1.187191154783136E+000
-1.1415142E+000	-9.373050134703043E-001
-1.2014409E+000	-1.190260573728196E+000
-1.1514677E+000	-9.403967707362408E-001
-1.2113905E+000	-1.191610599195721E+000
-1.1614593E+000	-9.438801159132399E-001
-1.2214241E+000	-1.195386138183395E+000
-1.1714089E+000	-9.466174158039475E-001