Ewe/V	<I>/mA	
1.2784778E+000	1.738121032714844E+001
1.3285578E+000	2.677132034301758E+001
1.2684633E+000	1.501200342178345E+001
1.3185930E+000	2.513060092926025E+001
1.2584716E+000	1.359246683120728E+001
1.3085670E+000	2.374315071105957E+001
1.2484839E+000	1.228543043136597E+001
1.2985831E+000	2.243630599975586E+001
1.2384808E+000	1.105536794662476E+001
1.2885762E+000	2.120681667327881E+001
1.2285160E+000	9.906673431396484E+000
1.2786113E+000	2.006958293914795E+001
1.2184747E+000	8.812606334686279E+000
1.2685587E+000	1.899652576446533E+001
1.2084756E+000	7.773165941238403E+000
1.2585785E+000	1.795995044708252E+001
1.1984992E+000	6.787587642669678E+000
1.2486366E+000	1.698506927490234E+001
1.1883740E+000	5.826840639114380E+000
1.2385992E+000	1.605450105667114E+001
1.1783748E+000	4.934854745864868E+000
1.2285999E+000	1.518295145034790E+001
1.1682916E+000	4.096922755241394E+000
1.2186046E+000	1.438742256164551E+001
1.1583687E+000	3.339976191520691E+000
1.2085557E+000	1.365205955505371E+001
1.1483923E+000	2.644723653793335E+000
1.1984916E+000	1.297476148605347E+001
1.1383703E+000	2.013075411319733E+000
1.1885037E+000	1.236431455612183E+001
1.1283939E+000	1.420773804187775E+000
1.1784434E+000	1.179550600051880E+001
1.1183908E+000	8.649538755416870E-001
1.1684939E+000	1.124980926513672E+001
1.1083955E+000	3.368294369429350E-001
1.1584833E+000	1.072856140136719E+001
1.0984076E+000	-1.731497049331665E-001
1.1485374E+000	1.026537752151489E+001
1.0883894E+000	-6.397709995508194E-001
1.1385306E+000	9.835620403289795E+000
1.0784206E+000	-1.048709362745285E+000
1.1284702E+000	9.449602603912354E+000
1.0684139E+000	-1.429952144622803E+000
1.1185551E+000	9.110762596130371E+000
1.0583955E+000	-1.766882061958313E+000
1.1084452E+000	8.795033931732178E+000
1.0484536E+000	-2.082992672920227E+000
1.0985107E+000	8.507955551147461E+000
1.0384886E+000	-2.393564343452454E+000
1.0885153E+000	8.215911388397217E+000
1.0284513E+000	-2.693057537078857E+000
1.0784742E+000	7.936091899871826E+000
1.0183948E+000	-2.984146833419800E+000
1.0684940E+000	7.675371646881104E+000
1.0084414E+000	-3.264157772064209E+000
1.0585139E+000	7.427448987960815E+000
9.9841923E-001	-3.507878184318542E+000
1.0484917E+000	7.213907241821289E+000
9.8847723E-001	-3.734217047691345E+000
1.0385574E+000	7.025196075439453E+000
9.7842842E-001	-3.926175713539124E+000
1.0285200E+000	6.863607168197632E+000
9.6844059E-001	-4.118897914886475E+000
1.0184827E+000	6.702973365783691E+000
9.5842612E-001	-4.317159652709961E+000
1.0084910E+000	6.532407283782959E+000
9.4844985E-001	-4.498995065689087E+000
9.9850321E-001	6.367571353912354E+000
9.3848491E-001	-4.700694322586060E+000
9.8855364E-001	6.193376302719116E+000
9.2847425E-001	-4.896663904190063E+000
9.7851241E-001	6.030450105667114E+000
9.1843688E-001	-5.079263210296631E+000
9.6849406E-001	5.896174907684326E+000
9.0848726E-001	-5.235885858535767E+000
9.5851398E-001	5.772786617279053E+000
8.9843464E-001	-5.375509500503540E+000
9.4845361E-001	5.672127723693848E+000
8.8845068E-001	-5.511313199996948E+000
9.3854600E-001	5.571850776672363E+000
8.7845522E-001	-5.647307395935059E+000
9.2855829E-001	5.462787866592407E+000
8.6842161E-001	-5.800874233245850E+000
9.1860867E-001	5.342264652252197E+000
8.5844147E-001	-5.950238943099976E+000
9.0849108E-001	5.198057413101196E+000
8.4848046E-001	-6.124624490737915E+000
8.9846897E-001	5.073523044586182E+000
8.3848506E-001	-6.292134761810303E+000
8.8853842E-001	4.961212873458862E+000
8.2845908E-001	-6.430612325668335E+000
8.7849337E-001	4.859026193618774E+000
8.1843698E-001	-6.565078735351563E+000
8.6855912E-001	4.774411678314209E+000
8.0846828E-001	-6.680826663970947E+000
8.5854459E-001	4.693617343902588E+000
7.9845762E-001	-6.800776958465576E+000
8.4851485E-001	4.607856988906860E+000
7.8843927E-001	-6.928558349609375E+000
8.3858049E-001	4.498793840408325E+000
7.7835226E-001	-7.096641063690186E+000
8.2849729E-001	4.380944728851318E+000
7.6835680E-001	-7.260713100433350E+000
8.1848276E-001	4.255264520645142E+000
7.5838053E-001	-7.419054985046387E+000
8.0851412E-001	4.132831096649170E+000
7.4833548E-001	-7.578351497650146E+000
7.9848820E-001	4.026824355125427E+000
7.3839355E-001	-7.707469940185547E+000
7.8853095E-001	3.922727465629578E+000
7.2841340E-001	-7.822262763977051E+000
7.7844769E-001	3.834293007850647E+000
7.1841800E-001	-7.934382200241089E+000
7.6846761E-001	3.758464813232422E+000
7.0841879E-001	-8.065219640731812E+000
7.5839961E-001	3.644244670867920E+000
6.9834316E-001	-8.208090066909790E+000
7.4837750E-001	3.530406594276428E+000
6.8843943E-001	-8.368532657623291E+000
7.3842406E-001	3.392120242118835E+000
6.7840964E-001	-8.537952899932861E+000
7.2842103E-001	3.256889700889587E+000
6.6842568E-001	-8.703935146331787E+000
7.1844089E-001	3.137321472167969E+000
6.5841120E-001	-8.846996307373047E+000
7.0844549E-001	3.030932664871216E+000
6.4840430E-001	-8.974013328552246E+000
6.9845009E-001	2.940587878227234E+000
6.3835931E-001	-9.098738670349121E+000
6.8847376E-001	2.844131231307983E+000
6.2843257E-001	-9.224418640136719E+000
6.7847455E-001	2.738124370574951E+000
6.1838371E-001	-9.370918750762939E+000
6.6842568E-001	2.604995012283325E+000
6.0838068E-001	-9.536327838897705E+000
6.5843028E-001	2.443979024887085E+000
5.9838527E-001	-9.726758480072021E+000
6.4842343E-001	2.287165164947510E+000
5.8841658E-001	-9.915851593017578E+000
6.3837451E-001	2.138946652412415E+000
5.7841736E-001	-1.008259773254395E+001
6.2845552E-001	1.993402063846588E+000
5.6843722E-001	-1.024838829040527E+001
6.1844480E-001	1.867721855640411E+000
5.5844182E-001	-1.039603424072266E+001
6.0845703E-001	1.741086542606354E+000
5.4846174E-001	-1.054329776763916E+001
5.9847307E-001	1.598025023937225E+000
5.3845865E-001	-1.071615600585938E+001
5.8843571E-001	1.433762013912201E+000
5.2845562E-001	-1.090945148468018E+001
5.7845175E-001	1.252117812633514E+000
5.1844877E-001	-1.112662172317505E+001
5.6850213E-001	1.042968988418579E+000
5.0840372E-001	-1.136002779006958E+001
5.5839604E-001	8.284722268581390E-001
4.9838918E-001	-1.158350276947021E+001
5.4849607E-001	6.296376585960388E-001
4.8847014E-001	-1.179074096679688E+001
5.3852355E-001	4.239269942045212E-001
4.7849381E-001	-1.198040723800659E+001
5.2845943E-001	2.493498474359512E-001
4.6849078E-001	-1.218802881240845E+001
5.1852131E-001	5.911045521497726E-002
4.5838463E-001	-1.241341209411621E+001
5.0852203E-001	-1.758237443864346E-001
4.4846940E-001	-1.265063810348511E+001
4.9851134E-001	-4.216451495885849E-001
4.3850455E-001	-1.293084001541138E+001
4.8847014E-001	-7.012740969657898E-001
4.2845190E-001	-1.323262596130371E+001
4.7849000E-001	-1.004587501287460E+000
4.1847172E-001	-1.354090499877930E+001
4.6847934E-001	-1.296058773994446E+000
4.0852597E-001	-1.384861135482788E+001
4.5851830E-001	-1.585237801074982E+000
3.9854583E-001	-1.414122867584229E+001
4.4851905E-001	-1.862574875354767E+000
3.8856190E-001	-1.444416046142578E+001
4.3850073E-001	-2.160540103912354E+000
3.7851301E-001	-1.475778818130493E+001
4.2845190E-001	-2.473594665527344E+000
3.6847180E-001	-1.509452676773071E+001
4.1854048E-001	-2.824659109115601E+000
3.5838476E-001	-1.549143123626709E+001
4.0852979E-001	-3.215833902359009E+000
3.4841990E-001	-1.590801095962524E+001
3.9854965E-001	-3.619233012199402E+000
3.3837867E-001	-1.634235191345215E+001
3.8855809E-001	-4.040013551712036E+000
3.2842907E-001	-1.677268314361572E+001
3.7856266E-001	-4.467861413955688E+000
3.1842223E-001	-1.721275424957275E+001
3.6849853E-001	-4.892843723297119E+000
3.0836955E-001	-1.764251136779785E+001
3.5842294E-001	-5.334825992584229E+000
2.9840085E-001	-1.807188796997070E+001
3.4845808E-001	-5.762864351272583E+000
2.8836727E-001	-1.853984642028809E+001
3.3845121E-001	-6.248204231262207E+000
2.7839094E-001	-1.903893756866455E+001
3.2844055E-001	-6.764104127883911E+000
2.6840317E-001	-1.958998298645020E+001
3.1844130E-001	-7.314002752304077E+000
2.5843832E-001	-2.016738605499268E+001
3.0843443E-001	-7.871350526809692E+000
2.4847345E-001	-2.075147438049316E+001
2.9843140E-001	-8.431563854217529E+000
2.3848568E-001	-2.132238388061523E+001
2.8857344E-001	-9.004192352294922E+000
2.2847117E-001	-2.188164234161377E+001
2.7850932E-001	-9.572618484497070E+000
2.1851777E-001	-2.248788642883301E+001
2.6843372E-001	-1.015384197235107E+001
2.0852236E-001	-2.309317588806152E+001
2.5846887E-001	-1.075053644180298E+001
1.9851550E-001	-2.370037651062012E+001
2.4846582E-001	-1.137970161437988E+001
1.8848954E-001	-2.435265350341797E+001
2.3851240E-001	-1.204687690734863E+001
1.7849796E-001	-2.503892898559570E+001
2.2847499E-001	-1.273124170303345E+001
1.6851018E-001	-2.573762035369873E+001
2.1846431E-001	-1.341006803512573E+001
1.5845752E-001	-2.642045593261719E+001
2.0852619E-001	-1.408278179168701E+001
1.4844301E-001	-2.708476638793945E+001
1.9848877E-001	-1.471767711639404E+001
1.3850488E-001	-2.773054790496826E+001
1.8862318E-001	-1.535467433929443E+001
1.2854001E-001	-2.835856723785400E+001
1.7854378E-001	-1.599472522735596E+001
1.1844151E-001	-2.900377655029297E+001
1.6856746E-001	-1.664719295501709E+001
1.0844229E-001	-2.965357112884521E+001
1.5851097E-001	-1.732258033752441E+001
9.8477423E-002	-3.031998062133789E+001
1.4846973E-001	-1.799758625030518E+001
8.8566013E-002	-3.099689674377441E+001
1.3852778E-001	-1.865521240234375E+001
7.8517154E-002	-3.163714027404785E+001
1.2847129E-001	-1.929488277435303E+001
6.8502650E-002	-3.226152992248535E+001
1.1852168E-001	-1.989539718627930E+001
5.8442339E-002	-3.283797836303711E+001
1.0850338E-001	-2.045274543762207E+001
4.8530925E-002	-3.338042831420898E+001
9.8530874E-002	-2.098335266113281E+001
3.8409527E-002	-3.391791152954102E+001
8.8428564E-002	-2.152503776550293E+001
2.8463753E-002	-3.444508361816406E+001
7.8517146E-002	-2.204647827148438E+001
1.8468343E-002	-3.496900367736816E+001
6.8502657E-002	-2.256466960906982E+001
8.5531119E-003	-3.547955703735352E+001
5.8522519E-002	-2.306338024139404E+001
-1.5759239E-003	-3.596203041076660E+001
4.8466023E-002	-2.351873207092285E+001
-1.1552241E-002	-3.637956619262695E+001
3.8535517E-002	-2.392767047882080E+001
-2.1540012E-002	-3.674915695190430E+001
2.8524840E-002	-2.426994895935059E+001
-3.1569783E-002	-3.707634735107422E+001
1.8586699E-002	-2.457364368438721E+001
-4.1523188E-002	-3.737411880493164E+001
8.5225692E-003	-2.486740684509277E+001
-5.1518597E-002	-3.764763641357422E+001
-1.4613852E-003	-2.513825035095215E+001
-6.1617088E-002	-3.793471527099609E+001
-1.1472064E-002	-2.540202617645264E+001
-7.1608678E-002	-3.819390678405762E+001
-2.1509469E-002	-2.565262413024902E+001
-8.1577361E-002	-3.841088676452637E+001
-3.1470515E-002	-2.584859085083008E+001
-9.1664396E-002	-3.857514953613281E+001
-4.1485008E-002	-2.599490070343018E+001
-1.0161781E-001	-3.869070625305176E+001
-5.1537689E-002	-2.608218860626221E+001
-1.1162849E-001	-3.874991607666016E+001
-6.1617091E-002	-2.615496253967285E+001
-1.2161244E-001	-3.876997375488281E+001
-7.1547590E-002	-2.616642189025879E+001
-1.3157730E-001	-3.877570343017578E+001
-8.1558265E-002	-2.617501544952393E+001
-1.4158417E-001	-3.876462364196777E+001
-9.1595672E-002	-2.618265628814697E+001
-1.5150702E-001	-3.876022911071777E+001
-1.0156436E-001	-2.616584777832031E+001
-1.6157879E-001	-3.873597335815430E+001
-1.1157503E-001	-2.611274814605713E+001
-1.7153984E-001	-3.865957260131836E+001
-1.2152844E-001	-2.603596591949463E+001
-1.8158869E-001	-3.855108261108398E+001
-1.3156967E-001	-2.589672279357910E+001
-1.9156884E-001	-3.837898445129395E+001
-1.4155363E-001	-2.571947479248047E+001
-2.0158333E-001	-3.817346954345703E+001
-1.5151466E-001	-2.551414489746094E+001
-2.1159782E-001	-3.798151016235352E+001
-1.6151769E-001	-2.531702899932861E+001
-2.2159323E-001	-3.777579689025879E+001
-1.7157802E-001	-2.511723899841309E+001
-2.3153900E-001	-3.757963752746582E+001
-1.8154289E-001	-2.493062973022461E+001
-2.4152295E-001	-3.738882637023926E+001
-1.9151920E-001	-2.473351383209229E+001
-2.5159857E-001	-3.718980026245117E+001
-2.0153369E-001	-2.451806259155273E+001
-2.6160541E-001	-3.695448493957520E+001
-2.1153292E-001	-2.429191303253174E+001
-2.7162755E-001	-3.669777488708496E+001
-2.2156268E-001	-2.402622795104980E+001
-2.8157714E-001	-3.643514633178711E+001
-2.3146646E-001	-2.375251960754395E+001
-2.9154581E-001	-3.617939376831055E+001
-2.4151149E-001	-2.351892280578613E+001
-3.0155650E-001	-3.595477294921875E+001
-2.5151074E-001	-2.330843830108643E+001
-3.1157479E-001	-3.577007293701172E+001
-2.6150614E-001	-2.314570236206055E+001
-3.2155877E-001	-3.562223625183105E+001
-2.7145955E-001	-2.301524829864502E+001
-3.3153504E-001	-3.550648689270020E+001
-2.8155804E-001	-2.289606094360352E+001
-3.4156102E-001	-3.540582847595215E+001
-2.9149237E-001	-2.280514335632324E+001
-3.5153353E-001	-3.532961845397949E+001
-3.0155268E-001	-2.273676395416260E+001
-3.6150602E-001	-3.529237365722656E+001
-3.1152135E-001	-2.271957492828369E+001
-3.7150908E-001	-3.531701278686523E+001
-3.2151291E-001	-2.277343750000000E+001
-3.8159609E-001	-3.544422149658203E+001
-3.3152741E-001	-2.294553089141846E+001
-3.9149606E-001	-3.567342567443848E+001
-3.4148467E-001	-2.323719310760498E+001
-4.0159836E-001	-3.604817390441895E+001
-3.5146096E-001	-2.364995098114014E+001
-4.1157851E-001	-3.653676033020020E+001
-3.6147928E-001	-2.418514347076416E+001
-4.2148992E-001	-3.713670158386230E+001
-3.7146705E-001	-2.483512687683105E+001
-4.3152732E-001	-3.785697555541992E+001
-3.8144720E-001	-2.558596229553223E+001
-4.4149598E-001	-3.866683006286621E+001
-3.9154187E-001	-2.643573665618896E+001
-4.5153341E-001	-3.958269119262695E+001
-4.0151820E-001	-2.740488719940186E+001
-4.6154025E-001	-4.063435745239258E+001
-4.1149834E-001	-2.850583076477051E+001
-4.7150514E-001	-4.179145431518555E+001
-4.2139062E-001	-2.970743370056152E+001
-4.8159978E-001	-4.308836746215820E+001
-4.3150058E-001	-3.102440166473389E+001
-4.9159521E-001	-4.446493148803711E+001
-4.4146928E-001	-3.242961311340332E+001
-5.0152189E-001	-4.590643310546875E+001
-4.5147231E-001	-3.388162231445313E+001
-5.1158220E-001	-4.739033889770508E+001
-4.6143335E-001	-3.538405418395996E+001
-5.2154708E-001	-4.889525413513184E+001
-4.7141731E-001	-3.689985656738281E+001
-5.3155774E-001	-5.043435859680176E+001
-4.8155779E-001	-3.846665954589844E+001
-5.4158753E-001	-5.201854133605957E+001
-4.9162194E-001	-4.005599975585938E+001
-5.5158675E-001	-5.363595962524414E+001
-5.0151807E-001	-4.169327926635742E+001
-5.6154394E-001	-5.530723571777344E+001
-5.1157457E-001	-4.338575935363770E+001
-5.7163864E-001	-5.701977157592773E+001
-5.2155852E-001	-4.510708427429199E+001
-5.8158439E-001	-5.875733184814453E+001
-5.3147757E-001	-4.682649612426758E+001
-5.9161037E-001	-6.048323822021484E+001
-5.4155695E-001	-4.855221176147461E+001
-6.0157907E-001	-6.220169448852539E+001
-5.5153328E-001	-5.024851036071777E+001
-6.1157066E-001	-6.389723014831543E+001
-5.6151724E-001	-5.193507194519043E+001
-6.2150878E-001	-6.558513259887695E+001
-5.7155085E-001	-5.361857795715332E+001
-6.3154233E-001	-6.729403686523438E+001
-5.8156914E-001	-5.533398056030273E+001
-6.4155686E-001	-6.899855422973633E+001
-5.9153402E-001	-5.706198692321777E+001
-6.5153319E-001	-7.074528121948242E+001
-6.0145307E-001	-5.879400062561035E+001
-6.6154385E-001	-7.248131179809570E+001
-6.1152101E-001	-6.050634956359863E+001
-6.7151636E-001	-7.419308471679688E+001
-6.2157369E-001	-6.220685386657715E+001
-6.8157279E-001	-7.587066650390625E+001
-6.3144308E-001	-6.385635948181152E+001
-6.9151479E-001	-7.750030136108398E+001
-6.4151102E-001	-6.547587966918945E+001
-7.0156747E-001	-7.910588073730469E+001
-6.5154463E-001	-6.707037353515625E+001
-7.1155906E-001	-8.071527481079102E+001
-6.6156292E-001	-6.866716003417969E+001
-7.2155446E-001	-8.230213165283203E+001
-6.7145526E-001	-7.026127624511719E+001
-7.3157275E-001	-8.389262008666992E+001
-6.8156898E-001	-7.185482025146484E+001
-7.4145746E-001	-8.548672866821289E+001
-6.9159114E-001	-7.342391586303711E+001
-7.5147575E-001	-8.704455566406250E+001
-7.0154077E-001	-7.494792556762695E+001
-7.6152468E-001	-8.855118942260742E+001
-7.1157050E-001	-7.643508148193359E+001
-7.7150863E-001	-8.999269104003906E+001
-7.2151625E-001	-7.784812164306641E+001
-7.8148109E-001	-9.139370346069336E+001
-7.3158044E-001	-7.921837997436523E+001
-7.9157960E-001	-9.276434326171875E+001
-7.4148422E-001	-8.056075668334961E+001
-8.0152535E-001	-9.410060119628906E+001
-7.5153303E-001	-8.188479232788086E+001
-8.1151313E-001	-9.542482757568359E+001
-7.6147884E-001	-8.320462417602539E+001
-8.2154286E-001	-9.673320388793945E+001
-7.7154297E-001	-8.449045944213867E+001
-8.3149248E-001	-9.800242233276367E+001
-7.8154218E-001	-8.570772552490234E+001
-8.4155279E-001	-9.920478820800781E+001
-7.9152614E-001	-8.687112045288086E+001
-8.5152149E-001	-1.003376274108887E+002
-8.0152917E-001	-8.795468521118164E+001
-8.6150926E-001	-1.014018974304199E+002
-8.1148261E-001	-8.898381423950195E+001
-8.7154287E-001	-1.024090538024902E+002
-8.2153910E-001	-8.995602035522461E+001
-8.8156879E-001	-1.033848953247070E+002
-8.3154213E-001	-9.091180038452148E+001
-8.9151835E-001	-1.043210105895996E+002
-8.4146881E-001	-9.183797836303711E+001
-9.0174288E-001	-1.052739219665527E+002
-8.5152149E-001	-9.272423171997070E+001
-9.1164285E-001	-1.061584587097168E+002
-8.6148638E-001	-9.355605316162109E+001
-9.2158478E-001	-1.069832191467285E+002
-8.7154281E-001	-9.434260559082031E+001
-9.3169475E-001	-1.077476081848145E+002
-8.8142371E-001	-9.504893112182617E+001
-9.4170159E-001	-1.084350280761719E+002
-8.9145350E-001	-9.569567489624023E+001
-9.5157862E-001	-1.090722160339355E+002
-9.0153670E-001	-9.631681442260742E+001
-9.6159697E-001	-1.096885871887207E+002
-9.1155118E-001	-9.691274261474609E+001
-9.7159618E-001	-1.102839393615723E+002
-9.2151225E-001	-9.748747634887695E+001
-9.8159540E-001	-1.108863639831543E+002
-9.3159926E-001	-9.806010437011719E+001
-9.9151063E-001	-1.114652976989746E+002
-9.4157177E-001	-9.861764526367188E+001
-1.0016282E+000	-1.120321922302246E+002
-9.5163208E-001	-9.913277816772461E+001
-1.0115664E+000	-1.125509605407715E+002
-9.6154732E-001	-9.962614059448242E+001
-1.0216343E+000	-1.130204505920410E+002
-9.7153509E-001	-1.000694618225098E+002
-1.0316297E+000	-1.134790534973145E+002
-9.8155725E-001	-1.004913864135742E+002
-1.0416023E+000	-1.139288597106934E+002
-9.9163282E-001	-1.009285888671875E+002
-1.0515862E+000	-1.143643455505371E+002
-1.0015557E+000	-1.013573951721191E+002
-1.0616274E+000	-1.148365097045898E+002
-1.0116084E+000	-1.018268814086914E+002
-1.0716228E+000	-1.153149757385254E+002
-1.0214969E+000	-1.022950286865234E+002
-1.0815800E+000	-1.157947692871094E+002
-1.0315686E+000	-1.027383499145508E+002
-1.0916671E+000	-1.162432479858398E+002
-1.0415220E+000	-1.031661987304688E+002
-1.1015937E+000	-1.166626892089844E+002
-1.0516014E+000	-1.035543136596680E+002
-1.1116617E+000	-1.170473747253418E+002
-1.0615664E+000	-1.039120674133301E+002
-1.1215121E+000	-1.174106559753418E+002
-1.0715922E+000	-1.042583541870117E+002
-1.1315455E+000	-1.177687950134277E+002
-1.0815572E+000	-1.046162948608398E+002
-1.1415334E+000	-1.181280708312988E+002
-1.0915182E+000	-1.049841728210449E+002
-1.1515632E+000	-1.184991874694824E+002
-1.1015327E+000	-1.053338890075684E+002
-1.1615661E+000	-1.188703117370605E+002
-1.1115395E+000	-1.056591758728027E+002
-1.1715273E+000	-1.191860389709473E+002
-1.1215540E+000	-1.059582901000977E+002
-1.1815264E+000	-1.194677658081055E+002
-1.1314960E+000	-1.061884422302246E+002
-1.1915753E+000	-1.196771049499512E+002
-1.1415143E+000	-1.063700904846191E+002
-1.2014905E+000	-1.198369789123535E+002
-1.1515403E+000	-1.065196418762207E+002
-1.2115012E+000	-1.199926414489746E+002
-1.1614746E+000	-1.066491432189941E+002
-1.2215462E+000	-1.201125907897949E+002
-1.1714891E+000	-1.067618370056152E+002