Ewe/V	<I>/mA	
-1.2206431E-001	9.080174379050732E-003
-7.2098754E-002	1.176127565533691E-002
-1.3202536E-001	4.249216516220020E-003
-8.2078904E-002	1.377002525386279E-002
-1.4209336E-001	4.431829726735996E-003
-9.2085749E-002	1.064899279584136E-002
-1.5200467E-001	5.718426219612840E-003
-1.0206210E-001	1.344630133067055E-002
-1.6205738E-001	4.755554265695695E-003
-1.1205366E-001	1.276565036665564E-002
-1.7206043E-001	4.382026282932515E-003
-1.2207960E-001	9.171482481495158E-003
-1.8202910E-001	3.435755884350761E-003
-1.3203298E-001	1.264944239538512E-002
-1.9202065E-001	4.572940510115584E-003
-1.4206651E-001	1.159526334199852E-002
-2.0201229E-001	3.543664221702466E-003
-1.5210393E-001	1.266604343064776E-002
-2.1204583E-001	6.570513442452267E-005
-1.6208409E-001	8.241813366665768E-003
-2.2208713E-001	-1.278994937741158E-003
-1.7202985E-001	8.922463943473152E-003
-2.3204818E-001	1.161386720132609E-003
-1.8205199E-001	1.084820744290482E-002
-2.4206644E-001	-5.487408413065845E-003
-1.9204354E-001	8.573838446350034E-003
-2.5202370E-001	-5.960543805723209E-003
-2.0204279E-001	7.403451652941803E-003
-2.6207632E-001	-7.545961712109972E-003
-2.1208790E-001	6.116855664953125E-003
-2.7200302E-001	-6.433679294549740E-003
-2.2204508E-001	6.266266423272479E-003
-2.8210920E-001	-8.473629713989794E-004
-2.3205200E-001	8.258415179348624E-003
-2.9211983E-001	-3.835585655115606E-003
-2.4205884E-001	5.867837099092707E-003
-3.0215338E-001	-6.690998199938687E-003
-2.5203130E-001	4.581241340929403E-003
-3.1216028E-001	-9.139681227363484E-003
-2.6204205E-001	2.838111491101976E-003
-3.2212517E-001	-2.798008206414328E-003
-2.7203739E-001	6.432279007403058E-003
-3.3210912E-001	-7.529360475018648E-003
-2.8212059E-001	7.254039857956661E-003
-3.4208545E-001	-6.383875275471088E-003
-2.9216570E-001	4.091504819212860E-003
-3.5210752E-001	-1.083300718132903E-002
-3.0209997E-001	5.270192854368360E-003
-3.6205718E-001	-1.107372446321002E-002
-3.1214121E-001	2.946019458645224E-003
-3.7210220E-001	-8.317919417648860E-003
-3.2208699E-001	3.410854265498718E-003
-3.8214344E-001	-1.104882266372442E-002
-3.3209002E-001	3.385952312110807E-003
-3.9210448E-001	-9.895036723363504E-003
-3.4213126E-001	2.713602311458722E-003
-4.0208074E-001	-9.803730263071062E-003
-3.5209611E-001	2.622295205187780E-003
-4.1205332E-001	-9.197785523175971E-003
-3.6208007E-001	1.734129313421276E-003
-4.2211741E-001	-1.081640538050915E-002
-3.7210220E-001	2.979221862124570E-003
-4.3205553E-001	-9.944840289434702E-003
-3.8209763E-001	2.389877998528231E-003
-4.4206625E-001	-9.812030243072367E-003
-3.9212358E-001	3.991896896205493E-003
-4.5211127E-001	-9.123079696386746E-003
-4.0211523E-001	6.764303231687765E-003
-4.6205324E-001	-5.869236959488669E-003
-4.1207999E-001	8.723249536199976E-003
-4.7205627E-001	-6.217863097528781E-003
-4.2209443E-001	1.109722630075260E-002
-4.8200592E-001	-3.412254014224549E-003
-4.3207079E-001	9.669519734376547E-003
-4.9202800E-001	3.560265249056414E-003
-4.4205096E-001	1.313917854112448E-002
-5.0207311E-001	-6.060151577200856E-003
-4.5208448E-001	1.152055793879654E-002
-5.1207227E-001	-4.250616452222675E-003
-4.6203414E-001	1.196879154256590E-002
-5.2207530E-001	-5.354598692856205E-003
-4.7204858E-001	1.152885808487949E-002
-5.3205931E-001	-6.334071829927707E-003
-4.8207840E-001	1.349610502770898E-002
-5.4204321E-001	-6.060151012997783E-003
-4.9204707E-001	1.146245315043332E-002
-5.5206531E-001	-7.396551121137657E-003
-5.0209594E-001	1.362891458531679E-002
-5.6200731E-001	-7.753477362237630E-003
-5.1204932E-001	1.435106815567807E-002
-5.7201034E-001	-7.197335964757148E-003
-5.2201039E-001	1.213480381841731E-002
-5.8199430E-001	-4.964469788398637E-003
-5.3207451E-001	1.469139372120085E-002
-5.9203553E-001	-9.330595179167400E-003
-5.4200500E-001	1.248342937627887E-002
-6.0201186E-001	-1.034327052500728E-002
-5.5200815E-001	1.368701905290515E-002
-6.1202252E-001	-1.059228939550889E-002
-5.6202257E-001	1.384473119295485E-002
-6.2204844E-001	-1.542324893702957E-002
-5.7204473E-001	1.375342407972430E-002
-6.3203239E-001	-1.612050104481372E-002
-5.8204007E-001	1.406054718561631E-002
-6.4200878E-001	-1.630311403626011E-002
-5.9201646E-001	1.354590857290133E-002
-6.5203857E-001	-1.973127021008860E-002
-6.0204238E-001	1.386963309841635E-002
-6.6206062E-001	-2.003839383225728E-002
-6.1204159E-001	1.509812455523110E-002
-6.7199498E-001	-2.071074242501156E-002
-6.2201786E-001	1.623530927843048E-002
-6.8202096E-001	-2.205544347753344E-002
-6.3204771E-001	1.797013748032243E-002
-6.9200486E-001	-1.633631753983261E-002
-6.4201635E-001	2.051842741101331E-002
-7.0199645E-001	-1.986408104067267E-002
-6.5198123E-001	1.545505108736939E-002
-7.1209490E-001	-1.972297028354977E-002
-6.6202241E-001	1.926503496487503E-002
-7.2208655E-001	-2.344164709844021E-002
-6.7200261E-001	1.221781006366335E-002
-7.3208964E-001	-2.659588112779285E-002
-6.8199795E-001	1.434276813423544E-002
-7.4205446E-001	-1.817905516161220E-002
-6.9199729E-001	1.784562825670705E-002
-7.5207275E-001	-1.548135330718337E-002
-7.0208037E-001	1.804484289807629E-002
-7.6204526E-001	-2.410569669597828E-002
-7.1207964E-001	1.704876869916916E-002
-7.7207124E-001	-2.081035018858057E-002
-7.2208273E-001	1.438427104047782E-002
-7.8208190E-001	-2.144949871074894E-002
-7.3209721E-001	1.620210566476959E-002
-7.9206967E-001	-2.136649239970295E-002
-7.4208117E-001	1.407714795989345E-002
-8.0208039E-001	-2.054473178704148E-002
-7.5204986E-001	1.609419857698452E-002
-8.1207579E-001	-2.562470900137788E-002
-7.6206434E-001	1.580367674140015E-002
-8.2203686E-001	-2.515987436408584E-002
-7.7207506E-001	1.328858994858581E-002
-8.3205515E-001	-1.746520216819709E-002
-7.8206283E-001	1.416845498201638E-002
-8.4201998E-001	-2.378197214768633E-002
-7.9204291E-001	1.449217977326200E-002
-8.5202682E-001	-2.324243149031768E-002
-8.0204219E-001	1.318068220912802E-002
-8.6207187E-001	-2.007159564401145E-002
-8.1204146E-001	1.317238124117820E-002
-8.7208641E-001	-2.681999908679211E-002
-8.2209790E-001	1.010115233594144E-002
-8.8207030E-001	-2.569941447480865E-002
-8.3212006E-001	1.210990212554031E-002
-8.9207345E-001	-1.637782095729012E-002
-8.4209639E-001	1.412695260596987E-002
-9.0205353E-001	-2.138309233376517E-002
-8.5213375E-001	1.626021058663078E-002
-9.1206419E-001	-2.021270663396499E-002
-8.6206043E-001	1.643452292267716E-002
-9.2202908E-001	-2.127518557497993E-002
-8.7209785E-001	1.612739987246205E-002
-9.3207413E-001	-2.476144586082386E-002
-8.8205886E-001	1.473289723103137E-002
-9.4204283E-001	-2.409739496753271E-002
-8.9209247E-001	1.508982394538496E-002
-9.5203435E-001	-2.290210696747122E-002
-9.0204972E-001	1.034186964787533E-002
-9.6205652E-001	-2.364916303802445E-002
-9.1212147E-001	1.423486039730841E-002
-9.7200608E-001	-2.242067001719517E-002
-9.2203671E-001	1.381982903441656E-002
-9.8205495E-001	-2.243727131787210E-002
-9.3205124E-001	1.049128079371851E-002
-9.9206948E-001	-2.660418299796141E-002
-9.4206953E-001	1.147905447230542E-002
-1.0021183E+000	-2.606464274551568E-002
-9.5206493E-001	1.172807377398660E-002
-1.0120296E+000	-2.494405825500906E-002
-9.6209091E-001	1.093951468583720E-002
-1.0220710E+000	-1.893441042984312E-002
-9.7205567E-001	8.756452086938371E-003
-1.0320511E+000	-2.754215203711524E-002
-9.8206258E-001	1.124663793092145E-002
-1.0420847E+000	-2.633026153173135E-002
-9.9206948E-001	7.743776391219835E-003
-1.0520838E+000	-2.871254001460655E-002
-1.0020190E+000	7.320444868642167E-003
-1.0620412E+000	-3.051377290292927E-002
-1.0120527E+000	9.960041561103222E-003
-1.0720977E+000	-3.022325237322114E-002
-1.0220786E+000	7.768678637385923E-003
-1.0820510E+000	-3.225690555637301E-002
-1.0320892E+000	8.424427138854051E-003
-1.0920885E+000	-3.018174842809854E-002
-1.0420580E+000	7.793580434657110E-003
-1.1020800E+000	-3.369291110531143E-002
-1.0520114E+000	7.677371825000431E-003
-1.1120297E+000	-3.986027035052364E-002
-1.0620564E+000	3.908891155531259E-003
-1.1221510E+000	-4.099745688069127E-002
-1.0720174E+000	3.012424592389320E-003