Ewe/V	<I>/mA	
-1.2207191E-001	-7.933718152344227E-003
-7.2110161E-002	9.110207503970208E-003
-1.3207495E-001	-2.783752685828721E-003
-8.2109399E-002	7.582893727047707E-003
-1.4205131E-001	-3.853301539493261E-003
-9.2093356E-002	6.827817721131484E-003
-1.5205434E-001	-3.428999762690274E-003
-1.0208491E-001	1.309151939879004E-002
-1.6207260E-001	-2.761014725947870E-003
-1.1205745E-001	5.772426323520458E-003
-1.7208713E-001	-5.243328538362929E-003
-1.2207191E-001	4.326626562789405E-003
-1.8207496E-001	-7.019045395874571E-003
-1.3202918E-001	1.094212553534510E-002
-1.9207039E-001	-4.109426957634908E-003
-1.4208947E-001	4.798549373262670E-003
-2.0207337E-001	-6.620056237459704E-003
-1.5206195E-001	3.382781123414794E-003
-2.1204203E-001	-7.326653521191440E-003
-1.6206498E-001	2.438935749605554E-003
-2.2204128E-001	-9.521094336582547E-003
-1.7207952E-001	5.776716395722064E-003
-2.3205192E-001	-7.777125015952943E-003
-1.8200240E-001	6.102772686941788E-003
-2.4205504E-001	-5.704525865276287E-003
-1.9207412E-001	4.399560266494837E-003
-2.5201988E-001	-6.003124402964161E-003
-2.0202757E-001	6.278670740050910E-003
-2.6206484E-001	-9.440868105700113E-003
-2.1208021E-001	1.735341674196950E-003
-2.7203748E-001	-8.835090213426489E-003
-2.2202218E-001	7.874627531574134E-003
-2.8217027E-001	-1.053401271765528E-002
-2.3205960E-001	5.347695745124864E-003
-2.9213133E-001	-7.169203041137717E-003
-2.4201305E-001	6.077030994092208E-003
-3.0210760E-001	-7.799434071090183E-003
-2.5204659E-001	6.004097576356449E-003
-3.1213740E-001	-7.851346332469977E-003
-2.6201525E-001	4.875772938412196E-003
-3.2215193E-001	-4.212820975635113E-003
-2.7197632E-001	6.454569086405640E-003
-3.3212823E-001	-7.112143071230748E-003
-2.8212827E-001	1.172723337547498E-002
-3.4213886E-001	-7.021190856239340E-003
-2.9209694E-001	1.074906638228292E-002
-3.5214570E-001	-3.842146758778545E-003
-3.0214587E-001	4.712745099700594E-003
-3.6213735E-001	-6.565999509302353E-003
-3.1210303E-001	6.064160486776118E-003
-3.7212899E-001	-7.839333404017768E-003
-3.2207170E-001	4.704164774624729E-003
-3.8205940E-001	-8.782320736980674E-003
-3.3210912E-001	7.492799608146750E-003
-3.9212736E-001	-8.718825680752468E-003
-3.4211597E-001	4.309465707848084E-003
-4.0211514E-001	-1.174685416689694E-002
-3.5208851E-001	5.454951280196907E-003
-4.1206470E-001	-6.439867406544600E-003
-3.6212966E-001	5.343405997398272E-003
-4.2205247E-001	-8.983102339984367E-003
-3.7206784E-001	7.338351713790381E-003
-4.3210524E-001	-9.113525361570896E-003
-3.8215110E-001	7.003716033231980E-003
-4.4207385E-001	-3.653377659319321E-003
-3.9210829E-001	5.944034803934711E-003
-4.5214182E-001	-6.430429176576546E-003
-4.0213811E-001	5.956905523234628E-003
-4.6212190E-001	-8.584542480788576E-003
-4.1209528E-001	4.305175489064545E-003
-4.7207537E-001	-8.955645384600523E-003
-4.2212501E-001	5.502143243799926E-003
-4.8204783E-001	-1.069961423629875E-002
-4.3204790E-001	5.201828971621567E-003
-4.9209672E-001	-7.652709059472212E-003
-4.4211203E-001	8.372291884636191E-003
-5.0205392E-001	-7.142603709990314E-003
-4.5209605E-001	8.359421043116547E-003
-5.1202643E-001	-7.950449135043960E-003
-4.6208760E-001	8.522448761570461E-003
-5.2204096E-001	-7.638551492807774E-003
-4.7210205E-001	8.020494773436526E-003
-5.3203636E-001	-8.527482171721834E-003
-4.8205170E-001	4.223661492003148E-003
-5.4208905E-001	-8.718396614834124E-003
-4.9206617E-001	4.133567611982497E-003
-5.5206913E-001	-8.611141528745883E-003
-5.0208062E-001	5.605108249102569E-003
-5.6202638E-001	-9.375656040626046E-003
-5.1207983E-001	7.711600236597282E-003
-5.7201034E-001	-6.234366695137938E-003
-5.2208298E-001	1.159852722743421E-002
-5.8206683E-001	-9.355312717713553E-004
-5.3208983E-001	5.729524306629208E-003
-5.9201646E-001	-7.125442739696446E-003
-5.4206997E-001	1.542539248148795E-002
-6.0203475E-001	-2.464990214780867E-003
-5.5205011E-001	1.014414731682255E-002
-6.1204159E-001	-6.582302267642254E-003
-5.6203401E-001	1.072332546297393E-002
-6.2205988E-001	-7.567334205652559E-003
-5.7204854E-001	1.355057205021214E-002
-6.3202858E-001	-5.452261739305818E-003
-5.8204395E-001	1.711573328540311E-002
-6.4201641E-001	-4.009894080134862E-003
-5.9208131E-001	1.192458296911475E-002
-6.5201563E-001	-7.849629655783869E-003
-6.0205007E-001	9.384780524025804E-003
-6.6203016E-001	-1.022640500201980E-002
-6.1207598E-001	9.625031852347810E-003
-6.7206365E-001	-1.079314095759504E-002
-6.2199116E-001	8.784151713892269E-003
-6.8207437E-001	-1.573031179062773E-002
-6.3206291E-001	1.128105172531658E-002
-6.9202012E-001	-1.708387236079476E-002
-6.4206600E-001	1.162426901397196E-002
-7.0202702E-001	-1.775228598918975E-002
-6.5206897E-001	1.071045456945980E-002
-7.1217513E-001	-1.505031431449598E-002
-6.6205299E-001	9.406231663234288E-003
-7.2217053E-001	-1.411461986580426E-002
-6.7208278E-001	1.339612480545976E-002
-7.3208570E-001	-1.263235312535983E-002
-6.8205899E-001	1.054742657010485E-002
-7.4206978E-001	-1.751074890783999E-002
-6.9202012E-001	1.261959682490802E-002
-7.5209951E-001	-8.220733065070492E-003
-7.0218742E-001	1.356344200913360E-002
-7.6209873E-001	-1.657290931979425E-002
-7.1207589E-001	6.398796860267286E-003
-7.7206361E-001	-1.885787266819333E-002
-7.2207892E-001	5.279052472677279E-003
-7.8209335E-001	-1.877807574922202E-002
-7.3211241E-001	3.091047151704843E-003
-7.9205823E-001	-2.177864690886790E-002
-7.4210024E-001	4.060633899039049E-003
-8.0210328E-001	-1.919079375756758E-002
-7.5215679E-001	2.988082048708166E-003
-8.1211394E-001	-1.919208053666890E-002
-7.6211399E-001	4.789968920571420E-003
-8.2212847E-001	-1.922683068289517E-002
-7.7211326E-001	7.810274814811446E-003
-8.3209330E-001	-1.782093004041006E-002
-7.8210866E-001	6.046999869734060E-003
-8.4213454E-001	-1.797065906373137E-002
-7.9212314E-001	6.887880387111675E-003
-8.5216814E-001	-1.781020448490811E-002
-8.0216056E-001	5.669461380431340E-003
-8.6210626E-001	-1.613359094147437E-002
-8.1211013E-001	7.539992162819132E-003
-8.7211311E-001	-1.787799064153703E-002
-8.2210171E-001	6.111352841564027E-003
-8.8207799E-001	-1.748543562304775E-002
-8.3210862E-001	9.492035970560097E-003
-8.9210397E-001	-1.781535356990951E-002
-8.4212691E-001	7.827435548187052E-003
-9.0210319E-001	-1.550421804671043E-002
-8.5209179E-001	8.745539736583444E-003
-9.1206801E-001	-1.087208122820751E-002
-8.6209857E-001	6.681950176867194E-003
-9.2204434E-001	-1.740606696857663E-002
-8.7212455E-001	6.081321407446313E-003
-9.3211609E-001	-1.996689142261665E-002
-8.8210475E-001	7.398414938139017E-003
-9.4208097E-001	-1.571100600995126E-002
-8.9213067E-001	9.860993551811081E-003
-9.5209926E-001	-1.345521485003946E-002
-9.0208405E-001	1.412974994006994E-002
-9.6209466E-001	-1.046622724120579E-002
-9.1206038E-001	1.440861367416474E-002
-9.7203666E-001	-1.189100551268536E-002
-9.2210162E-001	1.084345130555939E-002
-9.8206645E-001	-1.336769424012624E-002
-9.3211609E-001	1.325454798725229E-002
-9.9213052E-001	-5.276792331744551E-003
-9.4212681E-001	1.509075648454802E-002
-1.0020993E+000	-1.399277819561240E-002
-9.5207256E-001	1.208761147026553E-002
-1.0121061E+000	-1.315876098579905E-002
-9.6209848E-001	9.732287208627496E-003
-1.0220634E+000	-1.525667251291779E-002
-9.7208625E-001	5.304794144843500E-003
-1.0320244E+000	-1.281940567783300E-002
-9.8211986E-001	8.089137924890660E-003
-1.0420502E+000	-1.805002781238114E-002
-9.9206179E-001	6.832107710763230E-003
-1.0519923E+000	-1.853053060391646E-002
-1.0021107E+000	8.153490630289785E-003
-1.0620717E+000	-1.743695682197224E-002
-1.0120794E+000	7.398414763679528E-003
-1.0720594E+000	-1.709159407660032E-002
-1.0221092E+000	5.116024520902193E-003
-1.0820625E+000	-2.235396329857664E-002
-1.0321045E+000	4.935835892896381E-003
-1.0920732E+000	-2.304468674355008E-002
-1.0420579E+000	5.643720415995035E-003
-1.1020418E+000	-2.184686069952303E-002
-1.0520686E+000	3.734578198071156E-003
-1.1120449E+000	-2.459774085770500E-002
-1.0620487E+000	6.158545196270227E-003
-1.1221815E+000	-1.583413534347766E-002
-1.0720786E+000	6.844978169845473E-003