Ewe/V	<I>/mA	
-1.2208340E-001	-1.039307285100222E-002
-7.2113968E-002	8.545615854382044E-003
-1.3202156E-001	-7.892097999138065E-003
-8.2109407E-002	6.884662896482041E-003
-1.4205511E-001	-1.106127385282890E-002
-9.2085674E-002	5.357348386314697E-003
-1.5207343E-001	-1.008761082775891E-002
-1.0202384E-001	1.035930158323026E-002
-1.6206506E-001	-1.207311941543596E-002
-1.1206507E-001	8.316519053187199E-003
-1.7204896E-001	-1.365770731354132E-002
-1.2204522E-001	6.751022408570860E-003
-1.8204050E-001	-1.243585615884513E-002
-1.3208255E-001	4.650966390909159E-003
-1.9200924E-001	-1.535684457048775E-002
-1.4209329E-001	5.051885858847527E-003
-2.0203139E-001	-1.568139831069859E-002
-1.5208864E-001	2.570001357526049E-003
-2.1201153E-001	-1.837328972760588E-002
-1.6203830E-001	3.543663862365057E-003
-2.2204126E-001	-1.701779894065114E-002
-1.7199168E-001	6.044640065738335E-003
-2.3205192E-001	-1.762872440740471E-002
-1.8205579E-001	7.323764992179349E-003
-2.4203214E-001	-1.633050646632910E-002
-1.9202833E-001	5.834634252096280E-003
-2.5203511E-001	-1.885057366453113E-002
-2.0203137E-001	3.161835626087843E-003
-2.6196179E-001	-1.896512284874916E-002
-2.1203823E-001	6.903754395898409E-003
-2.7201068E-001	-1.986241950653495E-002
-2.2206417E-001	5.376440493273548E-003
-2.8211299E-001	-1.867875116877260E-002
-2.3202522E-001	7.094668773061127E-003
-2.9213893E-001	-2.100790441036224E-002
-2.4203596E-001	4.650965936889406E-003
-3.0211148E-001	-2.018697410821915E-002
-2.5199312E-001	8.240153445512988E-003
-3.1209922E-001	-2.135155149735511E-002
-2.6194271E-001	8.373792894417392E-003
-3.2208699E-001	-2.093153982423246E-002
-2.7199540E-001	9.481095802038909E-003
-3.3206713E-001	-2.058789310976863E-002
-2.8208250E-001	5.128251761925634E-003
-3.4209308E-001	-2.137064319103960E-002
-2.9213133E-001	7.323765440378327E-003
-3.5210752E-001	-2.091244733892383E-002
-3.0213818E-001	3.257292843045434E-003
-3.6209917E-001	-2.051152801141143E-002
-3.1213734E-001	3.715486818691716E-003
-3.7206781E-001	-2.087426520884036E-002
-3.2210606E-001	5.567354446611703E-003
-3.8205567E-001	-2.505528628826148E-002
-3.3205184E-001	7.724684843560675E-003
-3.9207399E-001	-2.075971700251103E-002
-3.4210837E-001	7.438313790771645E-003
-4.0205026E-001	-2.467345781624317E-002
-3.5211900E-001	6.292828213190660E-003
-4.1209909E-001	-2.673533298075204E-002
-3.6207247E-001	5.834635046630857E-003
-4.2202958E-001	-2.537984037771821E-002
-3.7209839E-001	4.746423478354696E-003
-4.3202120E-001	-3.036270216107367E-002
-3.8207096E-001	1.009202153654767E-002
-4.4206625E-001	-2.893084622919562E-002
-3.9207011E-001	6.846479943487790E-003
-4.5205399E-001	-2.396707469597464E-002
-4.0206176E-001	8.889261676813476E-003
-4.6208760E-001	-2.635350422933699E-002
-4.1211057E-001	1.768161895233788E-003
-4.7209445E-001	-2.982814274728299E-002
-4.2208692E-001	6.521925641573029E-003
-4.8205933E-001	-2.564712138846520E-002
-4.3207848E-001	3.429115196922794E-003
-4.9204707E-001	-3.265367504209282E-002
-4.4207773E-001	1.058839796751271E-002
-5.0203872E-001	-2.711716052144769E-002
-4.5209226E-001	6.980120000662268E-003
-5.1204169E-001	-3.175637517124415E-002
-4.6208373E-001	8.660164437605991E-003
-5.2205998E-001	-3.070634780451655E-002
-4.7202569E-001	1.137114703597035E-002
-5.3205925E-001	-3.066816600039607E-002
-4.8211658E-001	9.003810223657621E-003
-5.4203558E-001	-3.051543394103648E-002
-4.9199748E-001	1.247844856698066E-002
-5.5203485E-001	-3.673923760652542E-002
-5.0204629E-001	1.322301481268369E-002
-5.6200731E-001	-3.465827088803053E-002
-5.1205695E-001	1.291755180573090E-002
-5.7201803E-001	-4.076752755790952E-002
-5.2200657E-001	1.387212267145513E-002
-5.8200568E-001	-4.164573466405275E-002
-5.3199434E-001	1.469305469654500E-002
-5.9203160E-001	-4.307759162038564E-002
-5.4199362E-001	1.853042878210545E-002
-6.0202706E-001	-4.557856619358064E-002
-5.5203861E-001	1.648764698766171E-002
-6.1204928E-001	-4.849955402314662E-002
-5.6198442E-001	2.105049733072517E-002
-6.2197971E-001	-5.489518046379094E-002
-5.7202941E-001	2.099322322756052E-002
-6.3200951E-001	-5.741524957120425E-002
-5.8203626E-001	2.257781145162879E-002
-6.4202785E-001	-5.953439511358738E-002
-5.9202784E-001	2.498333035036920E-002
-6.5203470E-001	-6.272266078740359E-002
-6.0201949E-001	2.778976829722524E-002
-6.6202623E-001	-6.224537603557109E-002
-6.1201870E-001	2.725520832464096E-002
-6.7203689E-001	-6.245538238435984E-002
-6.2197977E-001	2.941253916360437E-002
-6.8192929E-001	-6.757188402116299E-002
-6.3199043E-001	2.899252902716398E-002
-6.9200867E-001	-7.287929914891719E-002
-6.4193618E-001	2.985164197161794E-002
-7.0202321E-001	-7.524663954973221E-002
-6.5201557E-001	2.962254481390114E-002
-7.1207201E-001	-7.077924050390727E-002
-6.6203773E-001	2.832432929426421E-002
-7.2203308E-001	-7.167653962969789E-002
-6.7203695E-001	3.139804536476720E-002
-7.3204374E-001	-6.759097594767816E-002
-6.8202090E-001	2.788522578775876E-002
-7.4209636E-001	-6.990103721618657E-002
-6.9201636E-001	2.736975830048323E-002
-7.5208426E-001	-7.007286157459025E-002
-7.0206523E-001	2.259690384380519E-002
-7.6209491E-001	-7.011104673147206E-002
-7.1212929E-001	3.030983638018359E-002
-7.7205598E-001	-7.148562427610161E-002
-7.2207505E-001	2.074503402691330E-002
-7.8202081E-001	-7.182926908135423E-002
-7.3208189E-001	1.874043457210064E-002
-7.9206204E-001	-6.591093316674246E-002
-7.4206209E-001	2.830523736774920E-002
-8.0206507E-001	-6.930920537561180E-002
-7.5210333E-001	1.902680699713527E-002
-8.1202996E-001	-7.097015455365180E-002
-7.6206058E-001	2.122232080437242E-002
-8.2206738E-001	-6.921374872326852E-002
-7.7210945E-001	2.219598307274279E-002
-8.3204746E-001	-6.419270411133765E-002
-7.8203613E-001	2.078321715816850E-002
-8.4211546E-001	-7.102743685245516E-002
-7.9202384E-001	2.255871896632016E-002
-8.5207272E-001	-6.896556373685603E-002
-8.0206895E-001	1.740403459407389E-002
-8.6208338E-001	-7.278384193778037E-002
-8.1206816E-001	1.759494983125476E-002
-8.7207115E-001	-7.140926495194444E-002
-8.2211703E-001	1.158115195576101E-002
-8.8199782E-001	-7.299385182559490E-002
-8.3205897E-001	2.210052525624631E-002
-8.9209253E-001	-7.251656614243984E-002
-8.4200472E-001	1.889316695742307E-002
-9.0203828E-001	-7.223019301891331E-002
-8.5204977E-001	1.906498861499129E-002
-9.1205657E-001	-7.303202822804450E-002
-8.6213297E-001	1.954227550886567E-002
-9.2204434E-001	-7.381478175520906E-002
-8.7208259E-001	1.967591545544561E-002
-9.3206650E-001	-7.106561139225959E-002
-8.8201308E-001	1.799586999695746E-002
-9.4200081E-001	-7.301294021308422E-002
-8.9204288E-001	1.799587132409214E-002
-9.5201147E-001	-7.305112443864345E-002
-9.0200007E-001	1.910317176952958E-002
-9.6202213E-001	-7.383386958390481E-002
-9.1207564E-001	2.236780575476582E-002
-9.7205192E-001	-7.419660948216933E-002
-9.2211682E-001	1.914135348051786E-002
-9.8201680E-001	-7.551391422748566E-002
-9.3203211E-001	1.896953261457379E-002
-9.9202752E-001	-7.664031349122524E-002
-9.4207335E-001	1.352847775269761E-002
-1.0020305E+000	-7.499844394624233E-002
-9.5205349E-001	1.986682987771927E-002
-1.0120298E+000	-7.297475598752498E-002
-9.6205652E-001	1.895043952390546E-002
-1.0220251E+000	-7.278383988887072E-002
-9.7206718E-001	1.856861263513565E-002
-1.0320168E+000	-7.828217297792439E-002
-9.8207790E-001	1.347120335558427E-002
-1.0420237E+000	-7.578119710087777E-002
-9.9205416E-001	1.450213955249635E-002
-1.0520535E+000	-8.042041398584865E-002
-1.0020267E+000	1.639219117350871E-002
-1.0619878E+000	-8.082133084535603E-002
-1.0120260E+000	1.404394650598986E-002
-1.0720632E+000	-7.908401377499108E-002
-1.0220594E+000	1.580035695806146E-002
-1.0820625E+000	-8.660603240132331E-002
-1.0320168E+000	1.068385593825951E-002
-1.0920159E+000	-8.322684764862065E-002
-1.0420121E+000	1.515124796424058E-002
-1.1020037E+000	-8.391413725912578E-002
-1.0520114E+000	1.532307125162333E-002
-1.1119838E+000	-8.675876408815386E-002
-1.0619571E+000	1.515124852303415E-002
-1.1220632E+000	-9.128342755138896E-002
-1.0719717E+000	1.979046384803951E-002