Ewe/V	<I>/mA	
-1.2203761E-001	-2.070244215428829E-002
-7.2060503E-002	7.513649016618729E-002
-1.3208264E-001	-6.522364169359207E-002
-8.2082629E-002	6.696536242961881E-002
-1.4208949E-001	-6.224537491798399E-002
-9.2070460E-002	6.230706125497820E-002
-1.5207343E-001	-6.499454453587533E-002
-1.0204293E-001	5.673235952854155E-002
-1.6202688E-001	-7.461661696434019E-002
-1.1205358E-001	6.055064722895620E-002
-1.7199937E-001	-7.446388304233553E-002
-1.2207199E-001	5.337227284908286E-002
-1.8199472E-001	-8.141316324472425E-002
-1.3209404E-001	4.481931626796720E-002
-1.9204363E-001	-8.530781567096712E-002
-1.4202081E-001	5.344863831996904E-002
-2.0209625E-001	-8.660603463649752E-002
-1.5202004E-001	5.833603963255873E-002
-2.1201533E-001	-9.660993367433546E-002
-1.6201921E-001	4.894306138157845E-002
-2.2202986E-001	-9.920636564493179E-002
-1.7203747E-001	4.985944852232932E-002
-2.3203664E-001	-1.030246540904045E-001
-1.8202910E-001	4.787394404411316E-002
-2.4206644E-001	-1.031773835420609E-001
-1.9200164E-001	5.573960915207854E-002
-2.5201222E-001	-1.152431577444077E-001
-2.0206195E-001	5.031764507293701E-002
-2.6200384E-001	-1.147849664092067E-001
-2.1202675E-001	5.451775640249251E-002
-2.7199543E-001	-1.267743900418283E-001
-2.2204126E-001	5.688509494066241E-002
-2.8211299E-001	-1.232615590095523E-001
-2.3203671E-001	5.444139391183855E-002
-2.9208934E-001	-1.386110663414002E-001
-2.4207033E-001	5.505231916904441E-002
-3.0213436E-001	-1.315854310989379E-001
-2.5200841E-001	5.642689988017080E-002
-3.1213742E-001	-1.376946702599525E-001
-2.6201147E-001	5.734328627586366E-002
-3.2210606E-001	-1.434984773397445E-001
-2.7198401E-001	5.635053142905233E-002
-3.3206713E-001	-1.466294705867768E-001
-2.8215885E-001	5.932879447937012E-002
-3.4209687E-001	-1.560224443674088E-001
-2.9212746E-001	6.016881838440891E-002
-3.5207322E-001	-1.564806371927261E-001
-3.0209619E-001	5.932879596948626E-002
-3.6210677E-001	-1.584661364555360E-001
-3.1210685E-001	6.108520701527598E-002
-3.7216708E-001	-1.684700399637222E-001
-3.2209459E-001	6.268888637423514E-002
-3.8207087E-001	-1.712192147970200E-001
-3.3210531E-001	6.413983628153802E-002
-3.9205864E-001	-1.706082880496980E-001
-3.4211603E-001	6.284161582589148E-002
-4.0212661E-001	-1.850413858890534E-001
-3.5208464E-001	6.467439085245130E-002
-4.1206479E-001	-1.909215599298477E-001
-3.6209536E-001	6.536167860031128E-002
-4.2208683E-001	-1.961144238710404E-001
-3.7210989E-001	6.940906569361688E-002
-4.3208995E-001	-2.012309163808823E-001
-3.8209763E-001	6.444529443979263E-002
-4.4208914E-001	-2.073401749134063E-001
-3.9204723E-001	7.116547077894209E-002
-4.5209217E-001	-2.128385096788410E-001
-4.0209603E-001	7.406737431883803E-002
-4.6208000E-001	-2.258970469236374E-001
-4.1208762E-001	7.467829883098598E-002
-4.7205248E-001	-2.365882366895677E-001
-4.2210981E-001	7.780928984284402E-002
-4.8204792E-001	-2.480430841445922E-001
-4.3208227E-001	8.903504312038424E-002
-4.9206996E-001	-2.609489023685456E-001
-4.4208914E-001	8.956959992647173E-002
-5.0206542E-001	-2.811857879161836E-001
-4.5198143E-001	1.009480983018876E-001
-5.1206845E-001	-3.061573863029481E-001
-4.6206084E-001	1.098828777670861E-001
-5.2207148E-001	-3.480821192264556E-001
-4.7202957E-001	1.217959269881248E-001
-5.3202873E-001	-3.961925148963927E-001
-4.8207080E-001	1.281342685222626E-001
-5.4208136E-001	-4.485030055046089E-001
-4.9204329E-001	1.602078571915624E-001
-5.5201197E-001	-5.404473066329958E-001
-5.0206918E-001	1.893795609474183E-001
-5.6200349E-001	-6.443809986114504E-001
-5.1202637E-001	2.347407698631283E-001
-5.7202941E-001	-7.677115440368656E-001
-5.2206391E-001	2.919386684894563E-001
-5.8204007E-001	-9.031843304634108E-001
-5.3202873E-001	3.737263083457947E-001
-5.9204704E-001	-1.066988635063172E+000
-5.4200888E-001	4.877402961254109E-001
-6.0202718E-001	-1.244004392623902E+000
-5.5206919E-001	6.217620134353634E-001
-6.1203772E-001	-1.414147067070008E+000
-5.6204927E-001	7.742643117904660E-001
-6.2203705E-001	-1.574209499359132E+000
-5.7204849E-001	9.286756992340086E-001
-6.3199806E-001	-1.729079127311707E+000
-5.8200955E-001	1.071784949302673E+000
-6.4198965E-001	-1.858671712875367E+000
-5.9202790E-001	1.203363013267516E+000
-6.5194303E-001	-1.963903594017033E+000
-6.0201561E-001	1.299812889099121E+000
-6.6200721E-001	-2.025301647186279E+000
-6.1198813E-001	1.380378723144531E+000
-6.7202932E-001	-2.047829627990723E+000
-6.2197590E-001	1.423601651191712E+000
-6.8199039E-001	-2.038436603546142E+000
-6.3202858E-001	1.442387652397155E+000
-6.9204682E-001	-1.988264250755314E+000
-6.4205456E-001	1.420165181159973E+000
-7.0198119E-001	-1.904338526725773E+000
-6.5205759E-001	1.378698778152465E+000
-7.1207201E-001	-1.799717450141907E+000
-6.6197664E-001	1.315773367881775E+000
-7.2209036E-001	-1.669972229003907E+000
-6.7200255E-001	1.230396533012390E+000
-7.3212010E-001	-1.538317775726318E+000
-6.8202472E-001	1.138375854492187E+000
-7.4211544E-001	-1.401623225212097E+000
-6.9199342E-001	1.041620564460754E+000
-7.5212240E-001	-1.280430817604065E+000
-7.0213765E-001	9.353195667266831E-001
-7.6205289E-001	-1.169929599761963E+000
-7.1206826E-001	8.346695899963379E-001
-7.7204454E-001	-1.084018349647522E+000
-7.2214752E-001	7.312704324722290E-001
-7.8211248E-001	-9.919211983680727E-001
-7.3212779E-001	6.644504070281982E-001
-7.9205060E-001	-9.321269035339359E-001
-7.4206978E-001	5.870156347751618E-001
-8.0204982E-001	-8.766090631484982E-001
-7.5212622E-001	5.252358257770537E-001
-8.1209862E-001	-8.282695889472960E-001
-7.6204908E-001	4.726962447166443E-001
-8.2205588E-001	-8.018470406532288E-001
-7.7214760E-001	4.267241239547719E-001
-8.3210093E-001	-7.774863958358766E-001
-7.8209341E-001	3.977051138877870E-001
-8.4207344E-001	-7.537366271018984E-001
-7.9209256E-001	3.672352313995360E-001
-8.5204214E-001	-7.431218266487125E-001
-8.0205745E-001	3.473037779331207E-001
-8.6208338E-001	-7.351797699928282E-001
-8.1201464E-001	3.267614185810088E-001
-8.7208253E-001	-7.256340861320494E-001
-8.2203299E-001	3.159174799919127E-001
-8.8205510E-001	-7.280014395713810E-001
-8.3207041E-001	3.031644165515899E-001
-8.9205432E-001	-7.305215120315554E-001
-8.4205437E-001	2.966733187437054E-001
-9.0203059E-001	-7.305978178977970E-001
-8.5209560E-001	2.849893838167190E-001
-9.1202223E-001	-7.338052392005920E-001
-8.6206424E-001	2.888076543807983E-001
-9.2205960E-001	-7.387689590454105E-001
-8.7205970E-001	2.796437740325928E-001
-9.3203211E-001	-7.334997534751890E-001
-8.8208562E-001	2.804838150739670E-001
-9.4205421E-001	-7.428163290023804E-001
-8.9211923E-001	2.849893748760222E-001
-9.5200765E-001	-7.329651951789860E-001
-9.0208405E-001	2.866694271564483E-001
-9.6205652E-001	-7.360962152481081E-001
-9.1204894E-001	2.814002066850663E-001
-9.7200227E-001	-7.422817945480347E-001
-9.2204434E-001	2.801019847393036E-001
-9.8201680E-001	-7.302160382270815E-001
-9.3200541E-001	2.845311939716337E-001
-9.9201989E-001	-7.367834568023683E-001
-9.4203895E-001	2.856766760349272E-001
-1.0020305E+000	-7.364779949188236E-001
-9.5204580E-001	2.833093434572220E-001
-1.0120527E+000	-7.392271637916563E-001
-9.6201450E-001	2.823929548263551E-001
-1.0220098E+000	-7.373180389404297E-001
-9.7201759E-001	2.887313067913055E-001
-1.0320206E+000	-7.357907295227051E-001
-9.8205876E-001	2.882730960845947E-001
-1.0420502E+000	-7.397617101669312E-001
-9.9203128E-001	2.893422424793242E-001
-1.0520419E+000	-7.406781435012819E-001
-1.0021107E+000	2.827747732400894E-001
-1.0620221E+000	-7.416709065437317E-001
-1.0120450E+000	2.841493666172026E-001
-1.0720136E+000	-7.479328632354738E-001
-1.0220556E+000	2.849893808364867E-001
-1.0820739E+000	-7.482383251190186E-001
-1.0320625E+000	2.901058763265609E-001
-1.0920616E+000	-7.539657354354858E-001
-1.0420160E+000	2.825456947088236E-001
-1.1020075E+000	-7.708425998687742E-001
-1.0519999E+000	2.843784421682358E-001
-1.1120105E+000	-7.732098817825319E-001
-1.0619991E+000	2.826984018087382E-001
-1.1220900E+000	-7.881012439727781E-001
-1.0720212E+000	2.894949555397033E-001