Ewe/V	<I>/mA	
-1.2208720E-001	-8.370471914531663E-005
-7.2117843E-002	1.586630973245270E-002
-1.3206355E-001	-3.797855220248245E-003
-8.2128488E-002	1.857381923632190E-002
-1.4206271E-001	4.168474058546544E-003
-9.2074268E-002	1.388774376193225E-002
-1.5207343E-001	2.745295586381952E-003
-1.0207351E-001	1.374889659398998E-002
-1.6207267E-001	-8.370572421964346E-005
-1.1206126E-001	1.819199085531920E-002
-1.7207952E-001	-5.759065264349134E-003
-1.2213306E-001	1.314144218552180E-002
-1.8209018E-001	-3.659008568237452E-003
-1.3210164E-001	1.499851651235734E-002
-1.9203594E-001	-3.961110223000023E-004
-1.4204749E-001	1.392245522319252E-002
-2.0203137E-001	-1.611019781359409E-003
-1.5205815E-001	1.874737670137125E-002
-2.1207641E-001	-5.307813175022602E-003
-1.6206500E-001	1.909449353644793E-002
-2.2206797E-001	-9.039318382168537E-003
-1.7207572E-001	1.258605541873046E-002
-2.3208250E-001	-4.717714761764844E-003
-1.8206348E-001	1.864324165084821E-002
-2.4204743E-001	-4.655342993580480E-004
-1.9203214E-001	1.760189290243114E-002
-2.5205421E-001	-8.102103776764125E-003
-2.0206955E-001	1.900771565058013E-002
-2.6204965E-001	-9.907110287299903E-003
-2.1210697E-001	1.026037395984694E-002
-2.7204886E-001	-7.772342132573801E-003
-2.2204888E-001	2.161109058017080E-002
-2.8212449E-001	-7.952953918985177E-004
-2.3207869E-001	1.480760298330674E-002
-2.9216182E-001	-1.148649240283045E-002
-2.4201678E-001	1.468611254610797E-002
-3.0214578E-001	-1.209394603210973E-002
-2.5205809E-001	1.772338295863432E-002
-3.1208396E-001	-1.235428363592787E-002
-2.6204196E-001	1.393981074745004E-002
-3.2211369E-001	-1.131293395618826E-002
-2.7203739E-001	1.130172315209743E-002
-3.3212441E-001	-1.139971339514225E-002
-2.8214356E-001	1.364476147996770E-002
-3.4206250E-001	-1.058398818978193E-002
-2.9217330E-001	1.393981072628361E-002
-3.5206175E-001	-1.061870039186694E-002
-3.0210766E-001	1.413072448816489E-002
-3.6212587E-001	-1.202452312943275E-002
-3.1216031E-001	1.517207552255555E-002
-3.7207931E-001	-1.249313088853590E-002
-3.2214046E-001	1.210009148979385E-002
-3.8212815E-001	-1.100052811671050E-002
-3.3211291E-001	2.088214643299580E-002
-3.9210060E-001	-1.207659043244680E-002
-3.4215415E-001	1.380096425683319E-002
-4.0211523E-001	-6.418586735063318E-003
-3.5213429E-001	2.256566294553605E-002
-4.1203800E-001	-9.230232753576605E-003
-3.6214113E-001	1.909449328245087E-002
-4.2209074E-001	-3.138333467094620E-003
-3.7212509E-001	2.773770139637319E-002
-4.3207079E-001	-1.320472036869350E-002
-3.8204417E-001	1.597044468772682E-002
-4.4210827E-001	-1.419400292533365E-002
-3.9209300E-001	1.782751809382302E-002
-4.5207688E-001	-1.365597221196035E-002
-4.0211892E-001	1.678616881624539E-002
-4.6206471E-001	-1.030629519796508E-002
-4.1208762E-001	1.492909424599598E-002
-4.7209835E-001	-1.414193570433947E-002
-4.2212123E-001	1.187446661589830E-002
-4.8210129E-001	-1.605107774958014E-002
-4.3209749E-001	1.675145643424575E-002
-4.9202806E-001	-1.516592972488566E-002
-4.4210061E-001	1.801843255419622E-002
-5.0209969E-001	-1.535684349735014E-002
-4.5211893E-001	2.067387722093950E-002
-5.1211810E-001	-1.226750458590686E-002
-4.6209142E-001	2.265244129706512E-002
-5.2208680E-001	-1.454111969691108E-002
-4.7206008E-001	2.192349592223763E-002
-5.3210121E-001	-1.664117751219735E-002
-4.8212039E-001	1.937218780883335E-002
-5.4208517E-001	-1.877594432285568E-002
-4.9208146E-001	2.303426958281873E-002
-5.5205774E-001	-1.768252642994578E-002
-5.0208831E-001	2.069123313677582E-002
-5.6207597E-001	-2.382649405097426E-002
-5.1204938E-001	2.301691531796335E-002
-5.7209426E-001	-2.580505922775389E-002
-5.2204472E-001	2.464836332100356E-002
-5.8205920E-001	-2.622159942984581E-002
-5.3203636E-001	2.023998067968270E-002
-5.9201264E-001	-3.333749520507723E-002
-5.4205459E-001	2.393677381967951E-002
-6.0207295E-001	-3.158455689183690E-002
-5.5207294E-001	2.185407403687178E-002
-6.1204928E-001	-4.059223525903444E-002
-5.6211424E-001	1.829612585292620E-002
-6.2209421E-001	-4.607668129557913E-002
-5.7204473E-001	2.301691396331240E-002
-6.3208586E-001	-4.697918350046337E-002
-5.8207446E-001	2.707818082787772E-002
-6.4204305E-001	-4.250137558714912E-002
-5.9207755E-001	2.608889629217714E-002
-6.5196222E-001	-5.156112259084522E-002
-6.0202324E-001	3.112208961763163E-002
-6.6206825E-001	-5.359175699678331E-002
-6.1204541E-001	3.042785620147531E-002
-6.7204458E-001	-5.180410566655069E-002
-6.2201405E-001	3.091381913559005E-002
-6.8209338E-001	-5.473724176937889E-002
-6.3204378E-001	4.104962961917574E-002
-6.9205832E-001	-5.244627256285062E-002
-6.4199728E-001	2.924765942787577E-002
-7.0202702E-001	-5.563974651423365E-002
-6.5200794E-001	3.087910933589388E-002
-7.1209872E-001	-5.780922638421709E-002
-6.6198808E-001	2.978569108315490E-002
-7.2214383E-001	-5.746210976080457E-002
-6.7204839E-001	2.666163977912880E-002
-7.3212010E-001	-5.513642626729887E-002
-6.8204772E-001	2.926501513204782E-002
-7.4210405E-001	-5.911091494966647E-002
-6.9196665E-001	2.978569167581474E-002
-7.5211096E-001	-5.796542865308851E-002
-7.0211101E-001	2.563764574006200E-002
-7.6209110E-001	-6.001341766254470E-002
-7.1214461E-001	2.352023289792916E-002
-7.7211320E-001	-5.633397806774487E-002
-7.2213238E-001	2.645336946641852E-002
-7.8209716E-001	-6.192255815999076E-002
-7.3212010E-001	2.254830635237420E-002
-7.9207349E-001	-6.164486655457452E-002
-7.4205065E-001	2.391941693018784E-002
-8.0206895E-001	-5.883322080427955E-002
-7.5209188E-001	2.279128900475123E-002
-8.1213689E-001	-6.036053394729446E-002
-7.6207578E-001	2.313840478150681E-002
-8.2210934E-001	-5.820841003548016E-002
-7.7207124E-001	2.169786956669255E-002
-8.3210093E-001	-6.016962027007888E-002
-7.8213543E-001	1.867795517583459E-002
-8.4208488E-001	-6.289449080147524E-002
-7.9207736E-001	2.581120273945006E-002
-8.5208035E-001	-5.935389362275600E-002
-8.0206507E-001	2.013584590432319E-002
-8.6205280E-001	-6.332838349044323E-002
-8.1206048E-001	2.560293310406533E-002
-8.7217802E-001	-6.074236231771390E-002
-8.2204825E-001	2.343345382674172E-002
-8.8207799E-001	-5.350497940724541E-002
-8.3203602E-001	2.372850295664235E-002
-8.9206958E-001	-5.968365767462686E-002
-8.4212309E-001	1.848704168911684E-002
-9.0210700E-001	-6.258208524774433E-002
-8.5209179E-001	1.774073976346038E-002
-9.1206801E-001	-6.353665041652590E-002
-8.6208719E-001	1.312408653426575E-002
-9.2208630E-001	-6.171429106457665E-002
-8.7211311E-001	1.782751827373762E-002
-9.3204737E-001	-6.119361350482155E-002
-8.8201690E-001	1.949367833069779E-002
-9.4212675E-001	-5.890264260497968E-002
-8.9207721E-001	2.121190781789745E-002
-9.5205349E-001	-6.053409183567227E-002
-9.0206498E-001	1.850439671596343E-002
-9.6206033E-001	-5.819105492396792E-002
-9.1207182E-001	1.968459387055851E-002
-9.7204810E-001	-6.856984831392787E-002
-9.2201763E-001	1.881680104204200E-002
-9.8208171E-001	-6.721608967266302E-002
-9.3203592E-001	1.753246989524500E-002
-9.9205798E-001	-6.459535895423474E-002
-9.4209623E-001	1.820934703573579E-002
-1.0020686E+000	-6.466478227891714E-002
-9.5211071E-001	1.956310267136854E-002
-1.0120794E+000	-6.877811761064967E-002
-9.6203363E-001	1.678616795371368E-002
-1.0220709E+000	-7.198894836685876E-002
-9.7202903E-001	1.522414329387667E-002
-1.0320206E+000	-6.818801875818858E-002
-9.8207027E-001	1.722006436268031E-002
-1.0421114E+000	-6.504661369730136E-002
-9.9207330E-001	1.794900990683923E-002
-1.0520190E+000	-6.641772474077617E-002
-1.0020229E+000	1.607457954775204E-002
-1.0620564E+000	-7.252697815949272E-002
-1.0120488E+000	1.249927625229413E-002
-1.0720479E+000	-7.191952233287419E-002
-1.0220824E+000	1.680352416058833E-002
-1.0820701E+000	-6.712931174446246E-002
-1.0320511E+000	1.801843238486486E-002
-1.0919968E+000	-7.716098360039969E-002
-1.0420923E+000	1.685559197159654E-002
-1.1020533E+000	-7.441876252943824E-002
-1.0520991E+000	1.529356697574252E-002
-1.1120219E+000	-7.953873242844234E-002
-1.0620335E+000	1.595308792523362E-002
-1.1221396E+000	-8.111811700192373E-002
-1.0720365E+000	1.166619601744140E-002