Ewe/V	<I>/mA	
-1.2206050E-001	-6.728550791740417E-002
-7.2098754E-002	1.711663454771042E-001
-1.3203678E-001	-1.866068914532661E-001
-8.2086511E-002	1.573250629007816E-001
-1.4208949E-001	-1.942434571683407E-001
-9.2100963E-002	1.497839447110891E-001
-1.5205815E-001	-2.028345987200737E-001
-1.0204674E-001	1.521703787147999E-001
-1.6209936E-001	-2.027391307055950E-001
-1.1204978E-001	1.515021789819002E-001
-1.7202985E-001	-2.050301060080528E-001
-1.2207191E-001	1.373745221644640E-001
-1.8204439E-001	-2.141939923167229E-001
-1.3212462E-001	1.428155824542046E-001
-1.9202073E-001	-2.180122658610344E-001
-1.4207420E-001	1.473020613193512E-001
-2.0207724E-001	-2.289898358285427E-001
-1.5203525E-001	1.384245529770851E-001
-2.1201153E-001	-2.370082326233387E-001
-1.6203450E-001	1.431019511073828E-001
-2.2204126E-001	-2.445493452250957E-001
-1.7206043E-001	1.498794034123421E-001
-2.3203671E-001	-2.543814219534397E-001
-1.8203290E-001	1.564659457653761E-001
-2.4201298E-001	-2.747137956321239E-001
-1.9203594E-001	1.593296565115452E-001
-2.5204659E-001	-2.817776091396809E-001
-2.0203899E-001	1.530294958502054E-001
-2.6204583E-001	-2.915142402052879E-001
-2.1203442E-001	1.594251226633787E-001
-2.7199161E-001	-3.002962842583656E-001
-2.2202605E-001	1.710708849132061E-001
-2.8211299E-001	-3.131829947233200E-001
-2.3201755E-001	1.756528243422508E-001
-2.9214659E-001	-3.203422874212265E-001
-2.4203975E-001	1.778483390808105E-001
-3.0210379E-001	-3.321789577603340E-001
-2.5205427E-001	1.803302206099033E-001
-3.1212214E-001	-3.454474955797195E-001
-2.6201147E-001	1.835757680237293E-001
-3.2209086E-001	-3.437292724847794E-001
-2.7200681E-001	1.940760500729084E-001
-3.3210531E-001	-3.554705008864403E-001
-2.8213969E-001	1.900668479502201E-001
-3.4207779E-001	-3.633934408426285E-001
-2.9209316E-001	1.971306726336479E-001
-3.5211131E-001	-3.689299523830414E-001
-3.0216876E-001	2.066763900220394E-001
-3.6206099E-001	-3.796211332082748E-001
-3.1210303E-001	1.974170394241810E-001
-3.7209073E-001	-3.885941207408905E-001
-3.2211757E-001	2.007580399513245E-001
-3.8210905E-001	-4.054900258779526E-001
-3.3209771E-001	2.145993262529373E-001
-3.9216554E-001	-4.136993288993835E-001
-3.4210449E-001	2.131674699485302E-001
-4.0208456E-001	-4.270633310079575E-001
-3.5210380E-001	2.117356173694134E-001
-4.1205710E-001	-4.356544613838196E-001
-3.6206478E-001	2.232859209179878E-001
-4.2209834E-001	-4.524549171328545E-001
-3.7210602E-001	2.280587814748287E-001
-4.3205559E-001	-4.791829064488411E-001
-3.8205177E-001	2.344544045627117E-001
-4.4210443E-001	-4.976061135530472E-001
-3.9207390E-001	2.421864233911037E-001
-4.5208836E-001	-5.161247849464417E-001
-4.0210372E-001	2.521139755845070E-001
-4.6211049E-001	-5.544030740857124E-001
-4.1200751E-001	2.712053917348385E-001
-4.7201809E-001	-5.794128626585007E-001
-4.2209834E-001	2.847603075206280E-001
-4.8212421E-001	-6.162593066692352E-001
-4.3205938E-001	2.963105887174606E-001
-4.9210054E-001	-6.544421464204788E-001
-4.4209674E-001	3.135883323848248E-001
-5.0207686E-001	-7.175392806529999E-001
-4.5208457E-001	3.424163833260536E-001
-5.1204556E-001	-7.870320677757263E-001
-4.6210289E-001	3.653260841965675E-001
-5.2204102E-001	-8.690296858549118E-001
-4.7206014E-001	4.175411239266396E-001
-5.3204393E-001	-9.892101883888245E-001
-4.8205164E-001	4.693743437528610E-001
-5.4207754E-001	-1.132491290569305E+000
-4.9205095E-001	5.378170982003212E-001
-5.5205774E-001	-1.301354885101318E+000
-5.0203872E-001	6.425335407257080E-001
-5.6203020E-001	-1.499428421258926E+000
-5.1203787E-001	7.679641842842102E-001
-5.7204092E-001	-1.727761775255203E+000
-5.2199894E-001	9.198363870382309E-001
-5.8198667E-001	-1.973754763603210E+000
-5.3204775E-001	1.109509706497192E+000
-5.9205079E-001	-2.244184732437134E+000
-5.4204708E-001	1.313119679689407E+000
-6.0206908E-001	-2.507550835609436E+000
-5.5204242E-001	1.530093669891357E+000
-6.1205691E-001	-2.770535111427307E+000
-5.6204164E-001	1.746208608150482E+000
-6.2204468E-001	-3.016814470291138E+000
-5.7202947E-001	1.942468434572220E+000
-6.3202101E-001	-3.223670065402985E+000
-5.8200949E-001	2.108659178018570E+000
-6.4203542E-001	-3.417257130146027E+000
-5.9202033E-001	2.239721804857254E+000
-6.5200412E-001	-3.551278889179230E+000
-6.0204238E-001	2.339951932430267E+000
-6.6196138E-001	-3.655899822711945E+000
-6.1205298E-001	2.414790213108063E+000
-6.7204076E-001	-3.709833025932312E+000
-6.2203318E-001	2.451541185379028E+000
-6.8201709E-001	-3.704487442970276E+000
-6.3200951E-001	2.455073177814484E+000
-6.9203168E-001	-3.664013683795929E+000
-6.4203161E-001	2.431781589984894E+000
-7.0203847E-001	-3.582875013351440E+000
-6.5200794E-001	2.379662036895752E+000
-7.1211785E-001	-3.461453616619110E+000
-6.6203010E-001	2.308928251266479E+000
-7.2205979E-001	-3.299940228462219E+000
-6.7208278E-001	2.215953052043915E+000
-7.3212773E-001	-3.120194554328918E+000
-6.8198657E-001	2.103695422410965E+000
-7.4208498E-001	-2.931189417839050E+000
-6.9202775E-001	1.980460435152054E+000
-7.5209570E-001	-2.730634093284607E+000
-7.0212626E-001	1.837751954793930E+000
-7.6209873E-001	-2.543919920921326E+000
-7.1210635E-001	1.706307530403137E+000
-7.7207887E-001	-2.363124251365662E+000
-7.2210568E-001	1.576008528470993E+000
-7.8210104E-001	-2.210297405719757E+000
-7.3209333E-001	1.450100600719452E+000
-7.9203153E-001	-2.061002433300018E+000
-7.4211556E-001	1.336888521909714E+000
-8.0209947E-001	-1.950176775455475E+000
-7.5207657E-001	1.225967317819595E+000
-8.1209105E-001	-1.848228663206100E+000
-7.6211399E-001	1.133373960852623E+000
-8.2208264E-001	-1.771481096744537E+000
-7.7209419E-001	1.049085319042206E+000
-8.3210856E-001	-1.706570327281952E+000
-7.8214300E-001	9.856063425540924E-001
-8.4211928E-001	-1.664950996637344E+000
-7.9203147E-001	9.293821305036545E-001
-8.5211468E-001	-1.619990736246109E+000
-8.0210328E-001	8.884310275316238E-001
-8.6208338E-001	-1.590208172798157E+000
-8.1208724E-001	8.432798534631729E-001
-8.7207496E-001	-1.576844125986099E+000
-8.2203686E-001	8.211337774991989E-001
-8.8208181E-001	-1.553934395313263E+000
-8.3204752E-001	7.927830219268799E-001
-8.9210016E-001	-1.554507136344910E+000
-8.4210402E-001	7.812327146530151E-001
-9.0209931E-001	-1.544484138488770E+000
-8.5213757E-001	7.557456642389297E-001
-9.1204894E-001	-1.545725107192993E+000
-8.6209100E-001	7.533592134714127E-001
-9.2203671E-001	-1.544961482286453E+000
-8.7207878E-001	7.454362809658051E-001
-9.3210846E-001	-1.554602593183517E+000
-8.8206655E-001	7.436225861310959E-001
-9.4205040E-001	-1.557752728462219E+000
-8.9208484E-001	7.337905168533325E-001
-9.5205343E-001	-1.558134526014328E+000
-9.0206498E-001	7.380861043930054E-001
-9.6200305E-001	-1.564816564321518E+000
-9.1205657E-001	7.273948937654495E-001
-9.7209775E-001	-1.563575595617294E+000
-9.2208248E-001	7.483954578638077E-001
-9.8204350E-001	-1.567584812641144E+000
-9.3206269E-001	7.433362454175949E-001
-9.9198931E-001	-1.573312222957611E+000
-9.4206190E-001	7.438135147094727E-001
-1.0020267E+000	-1.581044256687164E+000
-9.5206112E-001	7.503045797348022E-001
-1.0120603E+000	-1.570448487997055E+000
-9.6204889E-001	7.559365630149841E-001
-1.0220175E+000	-1.571880340576172E+000
-9.7205573E-001	7.551729083061218E-001
-1.0320358E+000	-1.572834908962250E+000
-9.8206258E-001	7.536456137895584E-001
-1.0420580E+000	-1.574744075536728E+000
-9.9206567E-001	7.594684660434723E-001
-1.0520610E+000	-1.574744075536728E+000
-1.0020877E+000	7.617594450712204E-001
-1.0620641E+000	-1.574362158775330E+000
-1.0120298E+000	7.619503587484360E-001
-1.0720327E+000	-1.584671616554260E+000
-1.0220596E+000	7.607094198465347E-001
-1.0820167E+000	-1.583621561527252E+000
-1.0319937E+000	7.600412368774414E-001
-1.0920464E+000	-1.588776230812073E+000
-1.0420541E+000	7.629049420356750E-001
-1.1020190E+000	-1.600517481565475E+000
-1.0520381E+000	7.525001317262650E-001
-1.1120068E+000	-1.618081599473953E+000
-1.0620412E+000	7.579411715269089E-001
-1.1221052E+000	-1.643854975700378E+000
-1.0719945E+000	7.554592937231064E-001