Ewe/V	<I>/mA	
-1.2206431E-001	-2.452072501182556E-002
-7.2094947E-002	5.856513902544974E-002
-1.3205206E-001	-6.087079495191583E-002
-8.2128495E-002	5.123403072357180E-002
-1.4210089E-001	-7.156199365854266E-002
-9.2112444E-002	4.359746351838112E-002
-1.5207343E-001	-7.179109007120132E-002
-1.0211549E-001	4.130649678409093E-002
-1.6210318E-001	-7.003468126058576E-002
-1.1212994E-001	3.863369412720197E-002
-1.7205274E-001	-6.782007738947882E-002
-1.2207571E-001	4.619389697909354E-002
-1.8205959E-001	-7.293657511472706E-002
-1.3207875E-001	3.588452972471715E-002
-1.9203982E-001	-7.706032246351247E-002
-1.4211997E-001	3.611362762749196E-002
-2.0201990E-001	-8.034404665231709E-002
-1.5210781E-001	3.955008387565612E-002
-2.1210317E-001	-9.126433581113813E-002
-1.6203450E-001	4.405566155910490E-002
-2.2206035E-001	-9.294438362121582E-002
-1.7206423E-001	4.222288206219671E-002
-2.3204431E-001	-9.195162653923039E-002
-1.8208256E-001	4.642299413681028E-002
-2.4207793E-001	-9.714449495077138E-002
-1.9205123E-001	3.878642469644544E-002
-2.5206947E-001	-9.905363619327545E-002
-2.0206575E-001	4.581207036972046E-002
-2.6204965E-001	-1.047046989202500E-001
-2.1209937E-001	4.115375950932504E-002
-2.7206036E-001	-1.155486240983010E-001
-2.2203746E-001	4.252834618091583E-002
-2.8217795E-001	-1.115776121616363E-001
-2.3207869E-001	3.977917879819870E-002
-2.9216948E-001	-1.210469514131546E-001
-2.4208173E-001	5.001218169927596E-002
-3.0213058E-001	-1.283017009496690E-001
-2.5202748E-001	4.871396571397779E-002
-3.1208396E-001	-1.289126262068748E-001
-2.6203823E-001	4.436112046241758E-002
-3.2213283E-001	-1.289126247167587E-001
-2.7208325E-001	5.062310844659806E-002
-3.3213201E-001	-1.380764961242675E-001
-2.8215876E-001	4.764484539628028E-002
-3.4214273E-001	-1.422766193747522E-001
-2.9213893E-001	5.138676464557645E-002
-3.5213810E-001	-1.503713846206665E-001
-3.0209610E-001	4.336836859583854E-002
-3.6213353E-001	-1.538078308105468E-001
-3.1214121E-001	4.795030876994133E-002
-3.7210220E-001	-1.613680303096772E-001
-3.2215574E-001	4.894306138157845E-002
-3.8207847E-001	-1.639644682407380E-001
-3.3210143E-001	5.467048659920692E-002
-3.9210442E-001	-1.564042776823045E-001
-3.4213513E-001	5.932879447937012E-002
-4.0211901E-001	-1.635826408863068E-001
-3.5212669E-001	5.673236176371577E-002
-4.1210678E-001	-1.806885570287704E-001
-3.6208007E-001	5.222678333520880E-002
-4.2209452E-001	-1.840486437082292E-001
-3.7211749E-001	5.253224968910220E-002
-4.3208617E-001	-1.800012648105622E-001
-3.8215110E-001	5.123403593897818E-002
-4.4213501E-001	-1.956562250852585E-001
-3.9213887E-001	5.069947168231009E-002
-4.5213804E-001	-1.971071720123292E-001
-4.0215340E-001	6.620170623064037E-002
-4.6210670E-001	-1.989399492740631E-001
-4.1215256E-001	6.039791554212570E-002
-4.7209066E-001	-2.070347189903259E-001
-4.2208305E-001	7.238732725381847E-002
-4.8209751E-001	-2.195586949586872E-001
-4.3208617E-001	7.139457538723937E-002
-4.9208146E-001	-2.399483233690267E-001
-4.4210061E-001	7.765656411647792E-002
-5.0209975E-001	-2.547632724046707E-001
-4.5213035E-001	7.895477563142772E-002
-5.1204175E-001	-2.843168020248412E-001
-4.6211436E-001	8.094027638435364E-002
-5.2211344E-001	-3.036372959613800E-001
-4.7206008E-001	9.842802435159681E-002
-5.3210121E-001	-3.504494667053222E-001
-4.8202112E-001	1.134720668196678E-001
-5.4207373E-001	-4.152839541435243E-001
-4.9211583E-001	1.324871212244034E-001
-5.5205393E-001	-4.721763610839842E-001
-5.0211120E-001	1.523422017693520E-001
-5.6207222E-001	-5.670225739479067E-001
-5.1205695E-001	1.858667314052582E-001
-5.7206762E-001	-6.789746880531311E-001
-5.2208668E-001	2.393227100372315E-001
-5.8202869E-001	-8.065053105354307E-001
-5.3206307E-001	3.195066690444945E-001
-5.9202790E-001	-9.529747366905212E-001
-5.4206610E-001	4.060289978981011E-001
-6.0210353E-001	-1.110822582244873E+000
-5.5203480E-001	5.247012734413143E-001
-6.1206448E-001	-1.263477563858032E+000
-5.6207985E-001	6.624649286270143E-001
-6.2206757E-001	-1.419721746444703E+000
-5.7206380E-001	7.981667399406431E-001
-6.3205147E-001	-1.565351176261903E+000
-5.8202869E-001	9.397487878799442E-001
-6.4205450E-001	-1.685168957710266E+000
-5.9203172E-001	1.058879172801969E+000
-6.5202707E-001	-1.782611632347107E+000
-6.0206908E-001	1.156016325950622E+000
-6.6203386E-001	-1.837365698814395E+000
-6.1204541E-001	1.235971212387085E+000
-6.7203313E-001	-1.862948226928712E+000
-6.2201405E-001	1.276292347908020E+000
-6.8203610E-001	-1.847369623184203E+000
-6.3201720E-001	1.296605539321899E+000
-6.9202393E-001	-1.802924919128419E+000
-6.4205831E-001	1.275452256202698E+000
-7.0202321E-001	-1.712049698829652E+000
-6.5201563E-001	1.242767834663391E+000
-7.1215600E-001	-1.618272638320924E+000
-6.6202247E-001	1.181446099281311E+000
-7.2212845E-001	-1.495094704627991E+000
-6.7202932E-001	1.106455051898955E+000
-7.3212016E-001	-1.380164289474488E+000
-6.8204761E-001	1.020085358619690E+000
-7.4213082E-001	-1.255764627456665E+000
-6.9205445E-001	9.234828710556027E-001
-7.5208426E-001	-1.145263528823852E+000
-7.0215297E-001	8.261929869651787E-001
-7.6214457E-001	-1.045911800861359E+000
-7.1211791E-001	7.318813681602476E-001
-7.7212083E-001	-9.545784354209896E-001
-7.2214752E-001	6.501700878143311E-001
-7.8216588E-001	-8.791290879249587E-001
-7.3215830E-001	5.760953247547143E-001
-7.9210401E-001	-8.294914126396193E-001
-7.4212706E-001	5.019443213939656E-001
-8.0209559E-001	-7.877957463264469E-001
-7.5207281E-001	4.530702888965603E-001
-8.1212157E-001	-7.461764454841617E-001
-7.6206058E-001	4.088545203208924E-001
-8.2209790E-001	-7.188375473022459E-001
-7.7206743E-001	3.727335512638090E-001
-8.3210856E-001	-6.960042238235475E-001
-7.8211242E-001	3.369180440902708E-001
-8.4208876E-001	-6.821056127548220E-001
-7.9210019E-001	3.192775726318358E-001
-8.5210317E-001	-6.700398445129396E-001
-8.0209565E-001	2.982770264148713E-001
-8.6208719E-001	-6.685889601707462E-001
-8.1209868E-001	2.824693232774731E-001
-8.7207878E-001	-6.566758990287784E-001
-8.2209790E-001	2.627669572830200E-001
-8.8211614E-001	-6.677489280700684E-001
-8.3204746E-001	2.616214811801911E-001
-8.9205813E-001	-6.628614664077759E-001
-8.4205055E-001	2.494029879570006E-001
-9.0208405E-001	-6.566758990287784E-001
-8.5214144E-001	2.409263938665385E-001
-9.1208714E-001	-6.675961494445799E-001
-8.6207193E-001	2.405445605516434E-001
-9.2205584E-001	-6.724835276603702E-001
-8.7206352E-001	2.361917167901992E-001
-9.3203211E-001	-6.721017241477965E-001
-8.8209707E-001	2.425300657749174E-001
-9.4205046E-001	-6.824110865592958E-001
-8.9206582E-001	2.339771151542660E-001
-9.5208400E-001	-6.783637404441834E-001
-9.0208024E-001	2.370317459106446E-001
-9.6202594E-001	-6.748508930206301E-001
-9.1204512E-001	2.318388730287553E-001
-9.7203666E-001	-6.769891381263733E-001
-9.2206722E-001	2.316097795963286E-001
-9.8205113E-001	-6.775236845016481E-001
-9.3210465E-001	2.412318676710128E-001
-9.9208093E-001	-6.750800013542175E-001
-9.4206572E-001	2.452028632164001E-001
-1.0020267E+000	-6.772182703018190E-001
-9.5210695E-001	2.429882705211639E-001
-1.0120870E+000	-6.766836881637577E-001
-9.6208704E-001	2.450501531362534E-001
-1.0220175E+000	-6.696580052375793E-001
-9.7205573E-001	2.466538161039353E-001
-1.0320473E+000	-6.672907114028934E-001
-9.8206639E-001	2.447446644306179E-001
-1.0419970E+000	-6.736290693283085E-001
-9.9200839E-001	2.398572772741314E-001
-1.0520495E+000	-6.709562182426456E-001
-1.0020725E+000	2.484865963459013E-001
-1.0620450E+000	-6.758436441421507E-001
-1.0120412E+000	2.432937234640118E-001
-1.0720365E+000	-6.822583675384521E-001
-1.0220366E+000	2.389408767223358E-001
-1.0820701E+000	-6.807310700416567E-001
-1.0320244E+000	2.461956232786178E-001
-1.0920426E+000	-6.891312837600712E-001
-1.0420426E+000	2.430646210908884E-001
-1.1020075E+000	-6.991351723670958E-001
-1.0519809E+000	2.423009753227232E-001
-1.1120257E+000	-7.064663052558897E-001
-1.0619838E+000	2.492502510547636E-001
-1.1221548E+000	-7.172338962554932E-001
-1.0720098E+000	2.380244910717011E-001