Ewe/V	<I>/mA	
-1.2214454E-001	-3.901991294696927E-003
-7.2106361E-002	8.198020086575556E-003
-1.3204445E-001	-4.863145007502998E-003
-8.2090311E-002	5.841217781537497E-003
-1.4201312E-001	-3.757158794103127E-003
-9.2051372E-002	5.090727158701680E-003
-1.5205821E-001	-3.928323637629898E-003
-1.0203533E-001	1.123948176572065E-002
-1.6203830E-001	1.693770892071088E-003
-1.1207274E-001	7.697693734622452E-003
-1.7204134E-001	-5.258139851603436E-003
-1.2207960E-001	1.943934583887939E-003
-1.8204059E-001	-1.319753773187304E-002
-1.3212462E-001	1.246110330424110E-003
-1.9201306E-001	-9.984912852564032E-003
-1.4207800E-001	3.945241684238587E-003
-2.0208104E-001	-8.892093243173749E-003
-1.5201996E-001	2.404761948253445E-003
-2.1204971E-001	-1.469851877733039E-002
-1.6210698E-001	-2.943700819741935E-004
-2.2205275E-001	-1.787164547191616E-002
-1.7202225E-001	3.826743652160951E-003
-2.3202902E-001	-1.714748693308954E-002
-1.8204819E-001	-6.498656042947851E-004
-2.4200918E-001	-1.750298231390530E-002
-1.9202453E-001	9.432806671548881E-004
-2.5201601E-001	-2.064977669767265E-002
-2.0205808E-001	-3.997018336968760E-004
-2.6200756E-001	-1.917512817629458E-002
-2.1205732E-001	-1.953348505374944E-003
-2.7200302E-001	-2.115010335270701E-002
-2.2200309E-001	-1.110692711241930E-003
-2.8209010E-001	-2.132126756397817E-002
-2.3203671E-001	-5.784799572148641E-003
-2.9211983E-001	-2.250625202753421E-002
-2.4204355E-001	3.576579929233110E-003
-3.0211526E-001	-2.072877542854384E-002
-2.5206187E-001	-4.507649033822142E-003
-3.1212592E-001	-2.113693608934511E-002
-2.6204205E-001	-2.664339610230951E-003
-3.2213286E-001	-1.538317698728425E-002
-2.7201068E-001	-4.389150549882445E-003
-3.3206713E-001	-1.972812053683247E-002
-2.8215498E-001	-6.761986979058592E-004
-3.4208921E-001	-1.908296234263429E-002
-2.9213893E-001	2.167765012990423E-003
-3.5209611E-001	-2.086044067581153E-002
-3.0217636E-001	-1.637352706768135E-003
-3.6211443E-001	-2.413889855660245E-002
-3.1208396E-001	5.219529768259361E-004
-3.7210220E-001	-1.693682337244010E-002
-3.2209086E-001	-7.025312696551465E-004
-3.8208228E-001	-1.954379098104507E-002
-3.3210912E-001	6.931172282402878E-004
-3.9212736E-001	-1.924096128164698E-002
-3.4208927E-001	1.298776160622545E-003
-4.0208843E-001	-2.043911271953378E-002
-3.5210371E-001	-2.453675764062892E-003
-4.1206852E-001	-1.993878452300002E-002
-3.6211446E-001	-1.071193150609957E-003
-4.2210981E-001	-2.070244125508031E-002
-3.7207931E-001	-1.758716469590456E-004
-4.3203643E-001	-2.032061277663914E-002
-3.8214722E-001	-1.295023323297662E-003
-4.4207004E-001	-2.333574237880010E-002
-3.9208159E-001	2.194097638933051E-003
-4.5202351E-001	-2.477088984872761E-002
-4.0207696E-001	7.326165169019828E-004
-4.6203035E-001	-2.132126778878018E-002
-4.1207621E-001	-1.232054790558197E-004
-4.7208297E-001	-2.359907255218979E-002
-4.2208305E-001	-1.479354732196202E-003
-4.8210511E-001	-2.515271768487737E-002
-4.3208608E-001	2.299429960940270E-003
-4.9205476E-001	-2.577154396166065E-002
-4.4204333E-001	2.457427916695072E-003
-5.0207311E-001	-2.269058379119843E-002
-4.5201960E-001	7.326167447147241E-004
-5.1204556E-001	-2.532388250632533E-002
-4.6209142E-001	1.693771105582810E-003
-5.2204090E-001	-2.711452582272991E-002
-4.7208685E-001	-1.281857075559074E-003
-5.3203636E-001	-3.211779545607238E-002
-4.8210517E-001	2.194097998716608E-003
-5.4207379E-001	-2.554771365148245E-002
-4.9203560E-001	-1.137025939834564E-003
-5.5205005E-001	-2.918166725029209E-002
-5.0208449E-001	6.009517849728079E-004
-5.6201869E-001	-2.757535316050053E-002
-5.1209134E-001	1.048613108839069E-003
-5.7205230E-001	-3.060364748897224E-002
-5.2204859E-001	4.261237965567551E-003
-5.8202100E-001	-3.144630513571467E-002
-5.3203636E-001	6.894537419831398E-003
-5.9206611E-001	-2.981365857453182E-002
-5.4210043E-001	8.988010187247958E-003
-6.0201949E-001	-3.328961538600511E-002
-5.5201954E-001	8.948510586974559E-003
-6.1203390E-001	-3.638374131044442E-002
-5.6196529E-001	7.460696666886837E-003
-6.2204081E-001	-3.866154674825997E-002
-5.7209057E-001	8.079521412206490E-003
-6.3199806E-001	-4.249299869968981E-002
-5.8203626E-001	1.202947152617931E-002
-6.4202785E-001	-4.294065668665131E-002
-5.9205461E-001	1.213480342693370E-002
-6.5200800E-001	-4.379648098657873E-002
-6.0207283E-001	1.297745903189179E-002
-6.6202623E-001	-4.384914541552809E-002
-6.1201870E-001	9.330339101042806E-003
-6.7202550E-001	-4.603478569408948E-002
-6.2199122E-001	1.507093233923459E-002
-6.8200183E-001	-4.847058846518926E-002
-6.3200188E-001	1.358311796753571E-002
-6.9201249E-001	-4.820725809911208E-002
-6.4201254E-001	1.129214738190559E-002
-7.0199651E-001	-4.748310007411860E-002
-6.5204239E-001	1.511043147986818E-002
-7.1209490E-001	-5.076155760164919E-002
-6.6203392E-001	1.488660128209096E-002
-7.2207886E-001	-5.010322995226968E-002
-6.7205226E-001	1.389911383840030E-002
-7.3208958E-001	-4.923424484400914E-002
-6.8200183E-001	1.091031866661946E-002
-7.4206972E-001	-4.700910479858011E-002
-6.9204307E-001	4.906396339908400E-003
-7.5206137E-001	-5.572532592662449E-002
-7.0208424E-001	1.222696954962507E-002
-7.6207966E-001	-5.244686839909389E-002
-7.1209496E-001	8.974843961588125E-003
-7.7210945E-001	-5.251270198616489E-002
-7.2210187E-001	1.109465028576810E-002
-7.8212011E-001	-5.380301896868081E-002
-7.3207814E-001	1.163447647082523E-002
-7.9207355E-001	-4.931324322162003E-002
-7.4210405E-001	8.250686221109735E-003
-8.0211478E-001	-4.487613228888347E-002
-7.5208807E-001	1.471543676573141E-002
-8.1210631E-001	-4.457330254131353E-002
-7.6207966E-001	1.188463954544011E-002
-8.2205588E-001	-5.497483420988614E-002
-7.7206743E-001	5.709552689824766E-003
-8.3208567E-001	-5.639681836654409E-002
-7.8208190E-001	7.394864194542730E-003
-8.4206963E-001	-5.572532656891593E-002
-7.9207730E-001	9.159174651421347E-003
-8.5209173E-001	-5.451400745017776E-002
-8.0205745E-001	5.551554577762324E-003
-8.6205280E-001	-5.521183435259194E-002
-8.1207198E-001	4.142739373492075E-003
-8.7208641E-001	-5.987277305845556E-002
-8.2207882E-001	5.643719664256988E-003
-8.8209325E-001	-5.797679658079974E-002
-8.3210862E-001	3.036753597904139E-003
-8.9212686E-001	-5.436917921078621E-002
-8.4211928E-001	6.670706983703860E-003
-9.0211082E-001	-5.527766485666408E-002
-8.5207653E-001	7.144700932509157E-003
-9.1202986E-001	-5.518550001855554E-002
-8.6211771E-001	4.827397706133607E-003
-9.2207867E-001	-5.432967623246132E-002
-8.7214750E-001	7.250032712332100E-003
-9.3208557E-001	-5.600182134015808E-002
-8.8212383E-001	4.840563838209563E-003
-9.4204664E-001	-5.833229486798419E-002
-8.9206195E-001	4.748398449386325E-003
-9.5207256E-001	-5.451400745017776E-002
-9.0207261E-001	5.301391637627162E-003
-9.6206796E-001	-5.772663511592768E-002
-9.1209096E-001	2.918255042961140E-003
-9.7205198E-001	-5.328952379781626E-002
-9.2209017E-001	1.825435843533466E-003
-9.8202825E-001	-5.766080229960641E-002
-9.3207031E-001	5.459389338221654E-003
-9.9206561E-001	-5.725263881272286E-002
-9.4209623E-001	1.532908625386912E-004
-1.0020343E+000	-5.825329533424872E-002
-9.5205343E-001	3.655578825695054E-003
-1.0121099E+000	-6.165025126317458E-002
-9.6204889E-001	-3.338695041120760E-004
-1.0220480E+000	-5.906961704122615E-002
-9.7201377E-001	3.721411408182100E-003
-1.0319901E+000	-5.804263003941240E-002
-9.8198622E-001	4.340236955362467E-003
-1.0421076E+000	-6.259824361266761E-002
-9.9208093E-001	4.327070427624959E-003
-1.0520571E+000	-6.678518524457677E-002
-1.0020534E+000	-4.375983918776159E-003
-1.0620564E+000	-6.298007096709876E-002
-1.0120374E+000	-1.966515124438267E-003
-1.0720251E+000	-6.487604847242101E-002
-1.0219908E+000	-8.473628068118005E-004
-1.0820320E+000	-7.529074210545117E-002
-1.0320129E+000	1.325109147352311E-003
-1.0920235E+000	-6.873382627964020E-002
-1.0419968E+000	-3.506995399847862E-003
-1.1020762E+000	-7.127496137701250E-002
-1.0520533E+000	-1.913849296999681E-003
-1.1120144E+000	-7.134079098187646E-002
-1.0620373E+000	-2.427342781347448E-003
-1.1220862E+000	-7.384242631238092E-002
-1.0719984E+000	-9.263621699386118E-004