Ewe/V	<I>/mA	
-1.2204141E-001	-8.370426803594455E-005
-7.2079659E-002	-2.029799244126246E-003
-1.3203298E-001	-1.424830883080440E-002
-8.2097918E-002	-7.857774375400889E-004
-1.4207807E-001	-1.273331224858280E-002
-9.2108645E-002	-3.224552969068983E-003
-1.5209253E-001	-9.826489018216242E-003
-1.0209259E-001	-5.024856556349652E-004
-1.6208029E-001	-1.534452622816448E-002
-1.1205739E-001	-9.828503121576846E-004
-1.7210628E-001	-1.698269477234254E-002
-1.2210248E-001	-4.616378862861422E-003
-1.8204819E-001	-2.123207382617459E-002
-1.3207875E-001	-6.463935539115138E-003
-1.9204363E-001	-1.504891711257159E-002
-1.4205131E-001	2.119031034394977E-004
-2.0202757E-001	-1.209282561115202E-002
-1.5212309E-001	-3.741868604500327E-003
-2.1204583E-001	-1.515976970474567E-002
-1.6205359E-001	-4.628696082715669E-003
-2.2202979E-001	-1.758622843772178E-002
-1.7201464E-001	-4.641012720962720E-003
-2.3204051E-001	-1.964317607663332E-002
-1.8201761E-001	6.922678308441278E-004
-2.4199009E-001	-1.767244871946116E-002
-1.9205123E-001	-6.133391709168337E-004
-2.5200841E-001	-1.722903394951456E-002
-2.0202757E-001	-9.602333199337960E-005
-2.6204196E-001	-1.538147732254957E-002
-2.1205351E-001	4.212931033238890E-004
-2.7204120E-001	-1.901500621029451E-002
-2.2204126E-001	-2.719554047460764E-003
-2.8214347E-001	-1.743842363958398E-002
-2.3202142E-001	-2.916626590904931E-003
-2.9211992E-001	-1.811586215250915E-002
-2.4204743E-001	-1.709556269023811E-003
-3.0212668E-001	-1.608354947529735E-002
-2.5206187E-001	1.899338525442044E-003
-3.1211832E-001	-1.863317814986071E-002
-2.6200384E-001	-3.310771984791745E-003
-3.2212135E-001	-1.756159497064447E-002
-2.7202979E-001	-3.852721983416667E-003
-3.3208624E-001	-2.044378344209929E-002
-2.8210151E-001	-1.266142440726982E-003
-3.4209695E-001	-1.864549520635797E-002
-2.9212752E-001	-1.019801236144568E-003
-3.5209611E-001	-1.612050114800373E-002
-3.0216867E-001	-4.409003989665856E-004
-3.6211443E-001	-1.737683883778030E-002
-3.1212214E-001	-2.066750498113015E-003
-3.7212127E-001	-1.802964181068442E-002
-3.2208318E-001	-4.901684515061793E-004
-3.8214722E-001	-1.953232177202741E-002
-3.3209762E-001	-5.640711336332791E-004
-3.9207771E-001	-1.995110173799819E-002
-3.4208539E-001	1.221900741990294E-003
-4.0210372E-001	-2.071475802410033E-002
-3.5213429E-001	1.579094800211850E-003
-4.1207239E-001	-1.886720123190078E-002
-3.6209914E-001	-1.758824135439711E-003
-4.2210594E-001	-1.919976246332930E-002
-3.7210220E-001	-3.852722038807828E-003
-4.3207079E-001	-2.171243853386373E-002
-3.8208616E-001	1.726899818036587E-003
-4.4205096E-001	-2.263621838703270E-002
-3.9208531E-001	5.444633720945863E-004
-4.5209217E-001	-2.166317120915456E-002
-4.0210754E-001	4.828780506467151E-004
-4.6206844E-001	-1.926134728015430E-002
-4.1204944E-001	7.661702655886692E-004
-4.7205248E-001	-2.529669901536358E-002
-4.2209452E-001	-6.133389451274387E-004
-4.8209369E-001	-1.780793584522702E-002
-4.3207088E-001	-2.719554076564591E-003
-4.9209294E-001	-2.299341313060255E-002
-4.4203573E-001	-1.452913059056885E-004
-5.0206542E-001	-2.339987486841216E-002
-4.5202720E-001	4.153357304242111E-003
-5.1203024E-001	-2.390487284790124E-002
-4.6203795E-001	-2.522480975688184E-003
-5.2207530E-001	-2.300572909054258E-002
-4.7208297E-001	1.566778109859553E-003
-5.3204393E-001	-2.672547672785097E-002
-4.8207459E-001	1.133666573291375E-004
-5.4205847E-001	-2.853608269604946E-002
-4.9202800E-001	-1.576084163858586E-004
-5.5203480E-001	-2.901644728356789E-002
-5.0205010E-001	-2.805773475331313E-003
-5.6200731E-001	-3.175083499762321E-002
-5.1207983E-001	3.104395103535702E-004
-5.7197595E-001	-3.127046632430247E-002
-5.2207917E-001	-1.500166253179252E-003
-5.8206308E-001	-3.297021882908968E-002
-5.3202486E-001	2.734883493112940E-004
-5.9204310E-001	-3.442363416956318E-002
-5.4206997E-001	-3.778820042498410E-003
-6.0202324E-001	-3.928886540234100E-002
-5.5202711E-001	5.567801192462932E-004
-6.1201483E-001	-4.177690814099000E-002
-5.6202257E-001	4.582439752055271E-004
-6.2201798E-001	-4.284849065926766E-002
-5.7201415E-001	-1.699254745260756E-004
-6.3204390E-001	-4.268836939046461E-002
-5.8205545E-001	1.985557356214661E-003
-6.4201647E-001	-4.268836963080591E-002
-5.9203172E-001	4.510551655379634E-003
-6.5200031E-001	-4.510250915923431E-002
-6.0206532E-001	5.075122443808904E-004
-6.6204154E-001	-4.658055569856401E-002
-6.1201870E-001	1.111248817535176E-002
-6.7201787E-001	-4.821872290584350E-002
-6.2200648E-001	8.439689161135772E-003
-6.8200946E-001	-4.622336272751126E-002
-6.3204002E-001	1.217175375354746E-002
-6.9203156E-001	-4.662982290310247E-002
-6.4197439E-001	5.791525001827273E-003
-7.0198494E-001	-5.261590728355992E-002
-6.5201181E-001	8.070177302861047E-003
-7.1211404E-001	-5.203700654449006E-002
-6.6201478E-001	1.077992845168938E-002
-7.2210175E-001	-4.995542812731957E-002
-6.7199880E-001	9.055541708104076E-003
-7.3207426E-001	-4.606324205956147E-002
-6.8200946E-001	1.026261219897518E-002
-7.4206585E-001	-4.779994307506474E-002
-6.9201249E-001	1.111248752192384E-002
-7.5212240E-001	-4.616177634846774E-002
-7.0208424E-001	1.193773037859147E-002
-7.6210254E-001	-4.314410037571381E-002
-7.1213311E-001	1.071834280587462E-002
-7.7210557E-001	-4.643275047982898E-002
-7.2206748E-001	1.094004918160216E-002
-7.8214300E-001	-4.712250480248081E-002
-7.3209339E-001	1.142041441644617E-002
-7.9205441E-001	-5.078066753283628E-002
-7.4207348E-001	7.318838061755446E-003
-8.0210710E-001	-4.395702445218641E-002
-7.5207657E-001	9.745295685265332E-003
-8.1207955E-001	-4.417873173952103E-002
-7.6209873E-001	1.197468199121255E-002
-8.2212085E-001	-4.409251326034147E-002
-7.7212083E-001	1.061980641304303E-002
-8.3209711E-001	-4.476995201360789E-002
-7.8210866E-001	7.503594298125995E-003
-8.4205818E-001	-4.792311282888539E-002
-7.9207349E-001	9.991636942891791E-003
-8.5209560E-001	-4.561982664369768E-002
-8.0204219E-001	9.659076560168484E-003
-8.6204517E-001	-4.640811874020478E-002
-8.1208718E-001	1.170370587703562E-002
-8.7211698E-001	-4.291007679796988E-002
-8.2207119E-001	1.231955846343488E-002
-8.8205504E-001	-4.571836489823555E-002
-8.3205515E-001	9.338833188878432E-003
-8.9213067E-001	-4.747970197950635E-002
-8.4211546E-001	8.378104210996461E-003
-9.0209931E-001	-4.747970209967700E-002
-8.5212994E-001	1.038578208188540E-002
-9.1200691E-001	-4.584153429154425E-002
-8.6211008E-001	6.813839037579695E-003
-9.2208254E-001	-3.906715787466497E-002
-8.7210166E-001	8.673713195152699E-003
-9.3205500E-001	-4.438812405832349E-002
-8.8205892E-001	1.017639250870070E-002
-9.4207716E-001	-4.295934424284964E-002
-8.9208102E-001	1.356358018012777E-002
-9.5206875E-001	-4.607555738860558E-002
-9.0205735E-001	1.036114836367025E-002
-9.6207947E-001	-4.678994765685451E-002
-9.1202217E-001	1.261516821931205E-002
-9.7201759E-001	-4.324263899076375E-002
-9.2211306E-001	9.326516299024062E-003
-9.8208171E-001	-4.696238461521363E-002
-9.3208176E-001	8.217982105692960E-003
-9.9203509E-001	-4.970908573558253E-002
-9.4200462E-001	1.005322180478083E-002
-1.0020648E+000	-4.334117231830470E-002
-9.5209551E-001	1.052126961088017E-002
-1.0120412E+000	-4.810786932226152E-002
-9.6208709E-001	9.819199113295443E-003
-1.0220404E+000	-3.971996074241979E-002
-9.7203666E-001	1.446272522932099E-002
-1.0320587E+000	-4.613714472901431E-002
-9.8202825E-001	8.735298349018830E-003
-1.0420083E+000	-4.622336284768191E-002
-9.9203128E-001	1.348967853212549E-002
-1.0520762E+000	-5.033725632294528E-002
-1.0020190E+000	7.712983826716105E-003
-1.0620259E+000	-5.563358325631385E-002
-1.0120336E+000	5.520549736120872E-003
-1.0720136E+000	-5.055896012533090E-002
-1.0220098E+000	8.254933411315557E-003
-1.0820854E+000	-6.096686434841925E-002
-1.0320168E+000	5.890060882290604E-003
-1.0920273E+000	-5.756736114140482E-002
-1.0420388E+000	4.375064076626703E-003
-1.1020571E+000	-5.714858010891943E-002
-1.0520381E+000	5.557500590164688E-003
-1.1120678E+000	-5.932869738148105E-002
-1.0620221E+000	2.675311914044281E-003
-1.1221167E+000	-6.294990919770738E-002
-1.0720670E+000	2.219581388823319E-003