Ewe/V	<I>/mA	
-1.2171048E-001	-5.784310340881348E+000
-7.1756348E-002	6.490235805511475E+000
-1.3166006E-001	-7.258641719818115E+000
-8.1751756E-002	4.955286026000977E+000
-1.4158675E-001	-8.184193611145020E+000
-9.1834977E-002	4.363070011138916E+000
-1.5173106E-001	-8.554567337036133E+000
-1.0181893E-001	4.139317989349365E+000
-1.6165011E-001	-8.689352035522461E+000
-1.1186397E-001	4.043097496032715E+000
-1.7168751E-001	-8.764954566955566E+000
-1.2180593E-001	3.979714155197144E+000
-1.8166001E-001	-8.812301635742188E+000
-1.3178225E-001	3.959095239639282E+000
-1.9173177E-001	-8.847810745239258E+000
-1.4173947E-001	3.937331199645996E+000
-2.0168900E-001	-8.880267143249512E+000
-1.5170434E-001	3.908312082290649E+000
-2.1171114E-001	-8.918831825256348E+000
-1.6184863E-001	3.887311458587646E+000
-2.2171798E-001	-8.955869674682617E+000
-1.7177533E-001	3.862110853195190E+000
-2.3161031E-001	-8.985651016235352E+000
-1.8175162E-001	3.837673902511597E+000
-2.4170499E-001	-9.033761978149414E+000
-1.9179668E-001	3.815145730972290E+000
-2.5170803E-001	-9.074999809265137E+000
-2.0181881E-001	3.792236089706421E+000
-2.6165000E-001	-9.129220008850098E+000
-2.1181422E-001	3.755962371826172E+000
-2.7177522E-001	-9.178092956542969E+000
-2.2178672E-001	3.727325439453125E+000
-2.8176299E-001	-9.240330696105957E+000
-2.3167904E-001	3.697542667388916E+000
-2.9168203E-001	-9.278896331787109E+000
-2.4173935E-001	3.673487424850464E+000
-3.0173853E-001	-9.329296112060547E+000
-2.5171566E-001	3.647523164749146E+000
-3.1178355E-001	-9.370534896850586E+000
-2.6175690E-001	3.609340190887451E+000
-3.2182857E-001	-9.406044006347656E+000
-2.7179047E-001	3.583375930786133E+000
-3.3184308E-001	-9.441936492919922E+000
-2.8185079E-001	3.523810863494873E+000
-3.4178504E-001	-9.475537300109863E+000
-2.9179275E-001	3.493264436721802E+000
-3.5172701E-001	-9.513339042663574E+000
-3.0180725E-001	3.469972848892212E+000
-3.6169949E-001	-9.548466682434082E+000
-3.1179884E-001	3.453554391860962E+000
-3.7175599E-001	-9.576722145080566E+000
-3.2175222E-001	3.422244310379028E+000
-3.8178197E-001	-9.624069213867188E+000
-3.3174002E-001	3.386734485626221E+000
-3.9173156E-001	-9.668360710144043E+000
-3.4181178E-001	3.353515386581421E+000
-4.0184531E-001	-9.709598541259766E+000
-3.5182247E-001	3.328696489334106E+000
-4.1180634E-001	-9.747781753540039E+000
-3.6180639E-001	3.300822973251343E+000
-4.2172539E-001	-9.804673194885254E+000
-3.7185526E-001	3.257294416427612E+000
-4.3176281E-001	-9.862329483032227E+000
-3.8176668E-001	3.215675115585327E+000
-4.4173911E-001	-9.919221878051758E+000
-3.9174297E-001	3.163364887237549E+000
-4.5176506E-001	-1.000169754028320E+001
-4.0181091E-001	3.125563621520996E+000
-4.6176049E-001	-1.006813526153564E+001
-4.1169563E-001	3.077835321426392E+000
-4.7175974E-001	-1.013610076904297E+001
-4.2187047E-001	3.028961181640625E+000
-4.8172459E-001	-1.021704769134521E+001
-4.3178952E-001	2.978177785873413E+000
-4.9181923E-001	-1.030906867980957E+001
-4.4177729E-001	2.923958301544189E+000
-5.0174594E-001	-1.040605258941650E+001
-4.5173073E-001	2.875847816467285E+000
-5.1179481E-001	-1.049845600128174E+001
-4.6170321E-001	2.805591583251953E+000
-5.2171385E-001	-1.063934993743896E+001
-4.7171772E-001	2.741444349288940E+000
-5.3172070E-001	-1.078482723236084E+001
-4.8174363E-001	2.636059761047363E+000
-5.4177719E-001	-1.096924972534180E+001
-4.9172759E-001	2.528384208679199E+000
-5.5169624E-001	-1.118192863464355E+001
-5.0166571E-001	2.387107849121094E+000
-5.6164581E-001	-1.142286205291748E+001
-5.1164973E-001	2.219866991043091E+000
-5.7173669E-001	-1.171419715881348E+001
-5.2170235E-001	2.022079467773438E+000
-5.8173972E-001	-1.201469707489014E+001
-5.3175128E-001	1.787255167961121E+000
-5.9171605E-001	-1.236712360382080E+001
-5.4166651E-001	1.528757214546204E+000
-6.0173821E-001	-1.274780654907227E+001
-5.5170768E-001	1.217949032783508E+000
-6.1161906E-001	-1.314796257019043E+001
-5.6168020E-001	8.914856314659119E-001
-6.2171751E-001	-1.356759262084961E+001
-5.7169849E-001	5.390579700469971E-001
-6.3172817E-001	-1.400020408630371E+001
-5.8165193E-001	1.835757493972778E-001
-6.4172745E-001	-1.445725345611572E+001
-5.9175807E-001	-2.047437280416489E-001
-6.5178007E-001	-1.489559173583984E+001
-6.0167331E-001	-5.968814492225647E-001
-6.6167623E-001	-1.533622169494629E+001
-6.1171067E-001	-9.821463227272034E-001
-6.7168689E-001	-1.576425075531006E+001
-6.2171370E-001	-1.374665975570679E+000
-6.8174344E-001	-1.617967987060547E+001
-6.3172442E-001	-1.742748498916626E+000
-6.9173115E-001	-1.657029151916504E+001
-6.4167011E-001	-2.088303327560425E+000
-7.0166928E-001	-1.690515327453613E+001
-6.5172666E-001	-2.383838415145874E+000
-7.1175635E-001	-1.722970771789551E+001
-6.6171062E-001	-2.653409242630005E+000
-7.2174412E-001	-1.747178840637207E+001
-6.7169833E-001	-2.879069805145264E+000
-7.3171669E-001	-1.765964889526367E+001
-6.8170905E-001	-3.047074317932129E+000
-7.4179220E-001	-1.777457809448242E+001
-6.9174647E-001	-3.145204305648804E+000
-7.5181437E-001	-1.782039642333984E+001
-7.0181823E-001	-3.194460153579712E+000
-7.6184028E-001	-1.778450584411621E+001
-7.1173346E-001	-3.157422780990601E+000
-7.7176696E-001	-1.765964889526367E+001
-7.2184718E-001	-3.053565263748169E+000
-7.8175861E-001	-1.747636985778809E+001
-7.3179299E-001	-2.880596876144409E+000
-7.9176545E-001	-1.722932624816895E+001
-7.4174255E-001	-2.667155027389526E+000
-8.0165398E-001	-1.692577171325684E+001
-7.5173420E-001	-2.407511711120605E+000
-8.1171423E-001	-1.661305618286133E+001
-7.6182884E-001	-2.131831884384155E+000
-8.2171351E-001	-1.626941108703613E+001
-7.7174407E-001	-1.869515657424927E+000
-8.3174324E-001	-1.594065475463867E+001
-7.8175855E-001	-1.589635372161865E+000
-8.4175771E-001	-1.563901233673096E+001
-7.9179978E-001	-1.349847078323364E+000
-8.5171878E-001	-1.535493183135986E+001
-8.0179524E-001	-1.140223383903503E+000
-8.6173332E-001	-1.511017894744873E+001
-8.1179440E-001	-9.630550146102905E-001
-8.7172109E-001	-1.491048336029053E+001
-8.2181656E-001	-8.332332968711853E-001
-8.8175464E-001	-1.476844310760498E+001
-8.3175474E-001	-7.465581893920898E-001
-8.9172715E-001	-1.466687679290771E+001
-8.4178829E-001	-6.705744266510010E-001
-9.0178365E-001	-1.458172988891602E+001
-8.5178751E-001	-6.209366917610168E-001
-9.1177905E-001	-1.450994396209717E+001
-8.6184400E-001	-5.804629325866699E-001
-9.2183173E-001	-1.446412563323975E+001
-8.7172872E-001	-5.533530712127686E-001
-9.3168968E-001	-1.443396091461182E+001
-8.8168973E-001	-5.418981909751892E-001
-9.4161642E-001	-1.442517852783203E+001
-8.9178061E-001	-5.384618043899536E-001
-9.5171863E-001	-1.442250633239746E+001
-9.0183711E-001	-5.594623088836670E-001
-9.6171403E-001	-1.443014240264893E+001
-9.1183639E-001	-5.739718079566956E-001
-9.7167897E-001	-1.444694328308105E+001
-9.2178208E-001	-6.056635379791260E-001
-9.8173159E-001	-1.447710800170898E+001
-9.3178892E-001	-6.312460899353027E-001
-9.9163544E-001	-1.451987266540527E+001
-9.4173092E-001	-6.839383840560913E-001
-1.0016804E+000	-1.456072902679443E+001
-9.5171106E-001	-7.236485481262207E-001
-1.0116415E+000	-1.461685657501221E+001
-9.6189356E-001	-7.877956628799438E-001
-1.0216330E+000	-1.467985916137695E+001
-9.7174382E-001	-8.542338609695435E-001
-1.0316666E+000	-1.475355148315430E+001
-9.8168957E-001	-9.206720590591431E-001
-1.0416468E+000	-1.482304477691650E+001
-9.9166596E-001	-9.821464419364929E-001
-1.0515964E+000	-1.487955474853516E+001
-1.0018255E+000	-1.029111266136169E+000
-1.0616224E+000	-1.493492031097412E+001
-1.0117980E+000	-1.084094524383545E+000
-1.0717056E+000	-1.497806644439697E+001
-1.0217400E+000	-1.108149766921997E+000
-1.0816475E+000	-1.501701354980469E+001
-1.0316705E+000	-1.139459729194641E+000
-1.0916125E+000	-1.502274036407471E+001
-1.0417575E+000	-1.141750574111938E+000
-1.1017567E+000	-1.502541351318359E+001
-1.0517911E+000	-1.141750574111938E+000
-1.1117063E+000	-1.502006816864014E+001
-1.0617369E+000	-1.136405110359192E+000
-1.1216520E+000	-1.503304958343506E+001
-1.0718011E+000	-1.133159518241882E+000