Ewe/V	<I>/mA	
1.2785469E+000	4.095064926147461E+001
1.3285087E+000	4.962602329254150E+001
1.2685629E+000	3.921715116500854E+001
1.3185554E+000	4.779931592941284E+001
1.2585982E+000	3.756802701950073E+001
1.3085332E+000	4.599185037612915E+001
1.2485265E+000	3.594507122039795E+001
1.2985415E+000	4.427296257019043E+001
1.2385958E+000	3.434360361099243E+001
1.2885232E+000	4.254958534240723E+001
1.2285584E+000	3.280664634704590E+001
1.2785776E+000	4.084067964553833E+001
1.2186127E+000	3.126458215713501E+001
1.2685478E+000	3.920139360427856E+001
1.2085638E+000	2.976548957824707E+001
1.2585409E+000	3.754749441146851E+001
1.1985952E+000	2.833019518852234E+001
1.2485797E+000	3.595543193817139E+001
1.1885616E+000	2.688998103141785E+001
1.2385501E+000	3.440649032592773E+001
1.1786425E+000	2.551294207572937E+001
1.2285393E+000	3.284484672546387E+001
1.1685364E+000	2.417902112007141E+001
1.2185555E+000	3.135301518440247E+001
1.1586059E+000	2.285894894599915E+001
1.2085066E+000	2.989694857597351E+001
1.1485800E+000	2.161112403869629E+001
1.1985570E+000	2.845028805732727E+001
1.1385463E+000	2.039295196533203E+001
1.1885806E+000	2.706933331489563E+001
1.1285930E+000	1.919411873817444E+001
1.1786158E+000	2.570437550544739E+001
1.1185708E+000	1.807321643829346E+001
1.1685669E+000	2.436940431594849E+001
1.1086098E+000	1.696616029739380E+001
1.1586212E+000	2.310009074211121E+001
1.0985380E+000	1.590556609630585E+001
1.1485990E+000	2.184457755088806E+001
1.0886075E+000	1.491717076301575E+001
1.1385845E+000	2.063609957695007E+001
1.0784937E+000	1.392958760261536E+001
1.1285663E+000	1.948750042915344E+001
1.0685251E+000	1.301511096954346E+001
1.1185555E+000	1.835274910926819E+001
1.0584762E+000	1.214924430847168E+001
1.1086251E+000	1.728484845161438E+001
1.0485075E+000	1.129894506931305E+001
1.0985533E+000	1.625877857208252E+001
1.0384357E+000	1.053020417690277E+001
1.0884967E+000	1.524612605571747E+001
1.0285243E+000	9.786198139190674E+000
1.0785166E+000	1.432038056850433E+001
1.0184984E+000	9.065541982650757E+000
1.0684792E+000	1.341994297504425E+001
1.0085258E+000	8.418040752410889E+000
1.0584877E+000	1.255211901664734E+001
9.9854958E-001	7.777940630912781E+000
1.0485342E+000	1.176332199573517E+001
9.8853499E-001	7.186116576194763E+000
1.0385159E+000	1.098455357551575E+001
9.7848237E-001	6.646913707256317E+000
1.0285473E+000	1.026117587089539E+001
9.6850985E-001	6.108045220375061E+000
1.0184640E+000	9.597916126251221E+000
9.5849538E-001	5.621750533580780E+000
1.0084724E+000	8.935134768486023E+000
9.4853812E-001	5.175853133201599E+000
9.9851519E-001	8.345936655998230E+000
9.3852746E-001	4.721026301383972E+000
9.8847777E-001	7.789734959602356E+000
9.2852062E-001	4.336632072925568E+000
9.7849762E-001	7.250580012798309E+000
9.1851372E-001	3.959066033363342E+000
9.6852511E-001	6.780902981758118E+000
9.0849161E-001	3.584747105836868E+000
9.5849919E-001	6.324499964714050E+000
8.9851528E-001	3.266487628221512E+000
9.4850373E-001	5.889203190803528E+000
8.8857710E-001	2.938057154417038E+000
9.3848544E-001	5.514215707778931E+000
8.7855119E-001	2.628201842308044E+000
9.2854732E-001	5.135169446468353E+000
8.6856341E-001	2.361895412206650E+000
9.1852516E-001	4.791363239288330E+000
8.5857183E-001	2.072811782360077E+000
9.0848017E-001	4.492204129695892E+000
8.4850770E-001	1.822597309947014E+000
8.9855725E-001	4.180677831172943E+000
8.3854669E-001	1.603659629821777E+000
8.8855422E-001	3.912938803434372E+000
8.2858181E-001	1.364905297756195E+000
8.7857026E-001	3.669552624225616E+000
8.1850624E-001	1.179536506533623E+000
8.6857867E-001	3.415183782577515E+000
8.0852604E-001	1.000996068120003E+000
8.5851073E-001	3.215203255414963E+000
7.9846960E-001	8.134306892752647E-001
8.4855348E-001	3.015270352363586E+000
7.8850853E-001	6.722314283251762E-001
8.3854282E-001	2.815576195716858E+000
7.7853221E-001	5.153698697686195E-001
8.2853597E-001	2.670509070158005E+000
7.6858646E-001	3.538287319242954E-001
8.1855583E-001	2.508729249238968E+000
7.5852233E-001	2.377464063465595E-001
8.0854136E-001	2.361417859792709E+000
7.4851167E-001	9.158104588277638E-002
7.9858404E-001	2.261475324630737E+000
7.3849332E-001	-2.922861720435321E-002
7.8852379E-001	2.129396498203278E+000
7.2858572E-001	-1.178064490668476E-001
7.7851689E-001	2.031507313251495E+000
7.1853304E-001	-2.456832360476255E-001
7.6852536E-001	1.959690004587173E+000
7.0850712E-001	-3.347385693341494E-001
7.5853753E-001	1.856166094541550E+000
6.9863385E-001	-4.136229790747166E-001
7.4848872E-001	1.800011128187180E+000
6.8858498E-001	-5.260284729301929E-001
7.3857349E-001	1.742853373289108E+000
6.7858571E-001	-5.901101268827915E-001
7.2856283E-001	1.665735706686974E+000
6.6844147E-001	-6.696152836084366E-001
7.1860939E-001	1.639472737908363E+000
6.5845364E-001	-7.656422406435013E-001
7.0860255E-001	1.594777956604958E+000
6.4846975E-001	-8.149211257696152E-001
6.9855368E-001	1.535137146711349E+000
6.3845521E-001	-8.977210894227028E-001
6.8855065E-001	1.524870663881302E+000
6.2850183E-001	-9.767487645149231E-001
6.7861629E-001	1.472870007157326E+000
6.1852551E-001	-1.021825589239597E+000
6.6852164E-001	1.436149612069130E+000
6.0851097E-001	-1.104577794671059E+000
6.5848422E-001	1.428843706846237E+000
5.9845448E-001	-1.165603354573250E+000
6.4850032E-001	1.376078993082047E+000
5.8851635E-001	-1.207862883806229E+000
6.3848579E-001	1.355020895600319E+000
5.7844841E-001	-1.294244170188904E+000
6.2849039E-001	1.334774509072304E+000
5.6854463E-001	-1.339607492089272E+000
6.1847967E-001	1.280720576643944E+000
5.5846143E-001	-1.392849698662758E+000
6.0845757E-001	1.269164875149727E+000
5.4852331E-001	-1.478275939822197E+000
5.9853852E-001	1.248822972178459E+000
5.3851259E-001	-1.517718121409416E+000
5.8849347E-001	1.216065898537636E+000
5.2854776E-001	-1.589487671852112E+000
5.7846367E-001	1.238843023777008E+000
5.1854467E-001	-1.672430887818336E+000
5.6845683E-001	1.224661067128181E+000
5.0861037E-001	-1.714738160371780E+000
5.5849195E-001	1.219169721007347E+000
4.9851570E-001	-1.802265509963036E+000
5.4856145E-001	1.225234046578407E+000
4.8860809E-001	-1.877091094851494E+000
5.3850496E-001	1.151315703988075E+000
4.7861266E-001	-1.928566500544548E+000
5.2855921E-001	1.081981509923935E+000
4.6856382E-001	-2.037677213549614E+000
5.1847976E-001	1.106859698891640E+000
4.5857605E-001	-2.108825966715813E+000
5.0844622E-001	1.077731668949127E+000
4.4852719E-001	-2.154905527830124E+000
4.9851567E-001	1.060111612081528E+000
4.3852416E-001	-2.240284055471420E+000
4.8859665E-001	1.003144852817059E+000
4.2860129E-001	-2.316733151674271E+000
4.7849813E-001	9.070224091410637E-001
4.1849133E-001	-2.451533854007721E+000
4.6851039E-001	8.588895276188850E-001
4.0854940E-001	-2.610066622495651E+000
4.5856079E-001	7.793365865945816E-001
3.9855400E-001	-2.720991909503937E+000
4.4854248E-001	6.875116974115372E-001
3.8855094E-001	-2.872934997081757E+000
4.3857378E-001	6.368957906961441E-001
3.7858224E-001	-3.030274063348770E+000
4.2855549E-001	5.323214158415794E-001
3.6855632E-001	-3.151036053895950E+000
4.1853717E-001	4.448418654501438E-001
3.5856089E-001	-3.329098939895630E+000
4.0853029E-001	3.773699030280113E-001
3.4856930E-001	-3.482379168272018E+000
3.9855778E-001	2.616218309849501E-001
3.3854336E-001	-3.621286392211914E+000
3.8852039E-001	1.736647607758641E-001
3.2857850E-001	-3.814677357673645E+000
3.7855554E-001	8.714021299965680E-002
3.1857163E-001	-3.963946461677551E+000
3.6858302E-001	-3.916079530608840E-002
3.0856857E-001	-4.122288286685944E+000
3.5855708E-001	-1.150368992239237E-001
2.9852355E-001	-4.314390003681183E+000
3.4863803E-001	-2.126396410167217E-001
2.8865412E-001	-4.454013526439667E+000
3.3866936E-001	-3.235171176493168E-001
2.7858999E-001	-4.617655754089355E+000
3.2858995E-001	-3.838264346122742E-001
2.6860222E-001	-4.789081215858459E+000
3.1866708E-001	-4.801876619458199E-001
2.5851902E-001	-4.905688881874084E+000
3.0864114E-001	-5.523869395256042E-001
2.4845105E-001	-5.068184912204742E+000
2.9863426E-001	-5.967474877834320E-001
2.3851672E-001	-5.193196654319763E+000
2.8868467E-001	-6.734831109642982E-001
2.2848696E-001	-5.276235401630402E+000
2.7870834E-001	-7.142623364925385E-001
2.1848011E-001	-5.386921882629395E+000
2.6865950E-001	-7.417190745472908E-001
2.0850377E-001	-5.443649947643280E+000
2.5868317E-001	-8.006913810968399E-001
1.9851220E-001	-5.478364765644073E+000
2.4856558E-001	-8.058484569191933E-001
1.8851295E-001	-5.531893491744995E+000
2.3858163E-001	-8.267633393406868E-001
1.7847937E-001	-5.510357737541199E+000
2.2857858E-001	-8.504955247044563E-001
1.6852596E-001	-5.500473499298096E+000
2.1851827E-001	-8.241847977042198E-001
1.5855345E-001	-5.484763503074646E+000
2.0854577E-001	-8.310609161853790E-001
1.4844733E-001	-5.402297675609589E+000
1.9861910E-001	-8.205557167530060E-001
1.3847484E-001	-5.353782832622528E+000
1.8858169E-001	-7.782962247729301E-001
1.2846416E-001	-5.281965494155884E+000
1.7855191E-001	-7.772934585809708E-001
1.1849547E-001	-5.167172491550446E+000
1.6864814E-001	-7.400955408811569E-001
1.0849243E-001	-5.100751161575317E+000
1.5860692E-001	-6.959260180592537E-001
9.8489381E-002	-4.989682614803314E+000
1.4853515E-001	-6.886201128363609E-001
8.8467248E-002	-4.873027086257935E+000
1.3858174E-001	-6.326561495661736E-001
7.8552015E-002	-4.798344850540161E+000
1.2865123E-001	-5.964609757065773E-001
6.8548977E-002	-4.671900808811188E+000
1.1863673E-001	-5.805599614977837E-001
5.8549751E-002	-4.575396060943604E+000
1.0857642E-001	-5.211578980088234E-001
4.8474167E-002	-4.505727767944336E+000
9.8561920E-002	-4.973779655992985E-001
3.8478758E-002	-4.388260602951050E+000
8.8566519E-002	-4.784686304628849E-001
2.8529163E-002	-4.319594860076904E+000
7.8567289E-002	-4.213108569383621E-001
1.8499395E-002	-4.251406729221344E+000
6.8610065E-002	-4.137184657156467E-001
8.5192574E-003	-4.149410843849182E+000
5.8561202E-002	-3.852112218737602E-001
-1.4723319E-003	-4.108870446681976E+000
4.8573431E-002	-3.430472202599049E-001
-1.1475375E-002	-4.042305648326874E+000
3.8574204E-002	-3.446229882538319E-001
-2.1463145E-002	-3.968817055225372E+000
2.8513892E-002	-3.096216246485710E-001
-3.1443279E-002	-3.948570728302002E+000
1.8610114E-002	-2.846956755965948E-001
-4.1446324E-002	-3.887067645788193E+000
8.5421652E-003	-2.937683444470167E-001
-5.1453184E-002	-3.844235181808472E+000
-1.4417883E-003	-2.568091861903667E-001
-6.1395142E-002	-3.837168008089066E+000
-1.1441013E-002	-2.508880794048309E-001
-7.1443997E-002	-3.777909219264984E+000
-2.1417329E-002	-2.571434341371059E-001
-8.1473768E-002	-3.767212986946106E+000
-3.1439461E-002	-2.216167971491814E-001
-9.1453902E-002	-3.760718852281570E+000
-4.1373782E-002	-2.324562463909388E-001
-1.0149894E-001	-3.718220621347427E+000
-5.1457003E-002	-2.346050329506397E-001
-1.1136454E-001	-3.734885722398758E+000
-6.1379869E-002	-2.048084978014231E-001
-1.2150503E-001	-3.722231686115265E+000
-7.1455456E-002	-2.261531352996826E-001
-1.3138972E-001	-3.695443451404572E+000
-8.1450857E-002	-2.155524455010891E-001
-1.4148058E-001	-3.727531999349594E+000
-9.1366082E-002	-2.003676667809486E-001
-1.5139961E-001	-3.716167390346527E+000
-1.0142259E-001	-2.253891192376614E-001
-1.6144465E-001	-3.717170089483261E+000
-1.1135308E-001	-2.091538291424513E-001
-1.7147441E-001	-3.773038625717163E+000
-1.2141339E-001	-2.124008890241385E-001
-1.8151565E-001	-3.771988093852997E+000
-1.3132863E-001	-2.376610916107893E-001
-1.9149959E-001	-3.814056605100632E+000
-1.4133930E-001	-2.184652425348759E-001
-2.0144537E-001	-3.887258589267731E+000
-1.5141870E-001	-2.494555432349443E-001
-2.1152860E-001	-3.926939576864243E+000
-1.6142556E-001	-2.759572733193636E-001
-2.2150491E-001	-4.038246840238571E+000
-1.7153551E-001	-2.836451530456543E-001
-2.3149268E-001	-4.165598273277283E+000
-1.8145074E-001	-3.480133078992367E-001
-2.4146137E-001	-4.296913266181946E+000
-1.9143851E-001	-3.969579301774502E-001
-2.5147206E-001	-4.533041119575500E+000
-2.0151410E-001	-4.550707079470158E-001
-2.6153237E-001	-4.789081335067749E+000
-2.1138734E-001	-5.743523389101028E-001
-2.7145904E-001	-5.102661013603210E+000
-2.2145146E-001	-6.766346395015717E-001
-2.8146973E-001	-5.535331487655640E+000
-2.3146978E-001	-8.266678377985954E-001
-2.9148039E-001	-5.993548810482025E+000
-2.4143082E-001	-1.081466376781464E+000
-3.0148727E-001	-6.537048935890198E+000
-2.5147969E-001	-1.344621360301971E+000
-3.1149411E-001	-7.175812184810638E+000
-2.6153618E-001	-1.815158218145370E+000
-3.2153150E-001	-7.807555973529816E+000
-2.7152014E-001	-2.340369850397110E+000
-3.3141619E-001	-8.511355876922607E+000
-2.8146970E-001	-2.840034723281860E+000
-3.4149179E-001	-9.239699602127075E+000
-2.9147276E-001	-3.412758439779282E+000
-3.5142612E-001	-9.919385075569153E+000
-3.0148345E-001	-3.992119610309601E+000
-3.6144823E-001	-1.063741457462311E+001
-3.1145212E-001	-4.541493058204651E+000
-3.7151238E-001	-1.130248832702637E+001
-3.2143226E-001	-5.132123351097107E+000
-3.8151541E-001	-1.189245021343231E+001
-3.3145818E-001	-5.665452718734741E+000
-3.9144590E-001	-1.247792363166809E+001
-3.4148416E-001	-6.158480286598206E+000
-4.0144897E-001	-1.295490658283234E+001
-3.5145283E-001	-6.650218427181244E+000
-4.1147873E-001	-1.336976647377014E+001
-3.6144823E-001	-7.042969286441803E+000
-4.2148560E-001	-1.375807631015778E+001
-3.7143981E-001	-7.404347836971283E+000
-4.3151915E-001	-1.402643597126007E+001
-3.8150778E-001	-7.743044555187225E+000
-4.4145349E-001	-1.426972639560699E+001
-3.9143065E-001	-7.978742599487305E+000
-4.5142600E-001	-1.448236072063446E+001
-4.0145278E-001	-8.216971635818481E+000
-4.6143666E-001	-1.460030555725098E+001
-4.1149780E-001	-8.418957591056824E+000
-4.7145119E-001	-1.474150478839874E+001
-4.2139015E-001	-8.548792481422424E+000
-4.8147711E-001	-1.484536325931549E+001
-4.3144280E-001	-8.712530136108398E+000
-4.9142671E-001	-1.489898741245270E+001
-4.4143060E-001	-8.820112705230713E+000
-5.0144881E-001	-1.499458456039429E+001
-4.5149472E-001	-8.891739010810852E+000
-5.1141751E-001	-1.503445625305176E+001
-4.6141759E-001	-9.001470565795898E+000
-5.2142441E-001	-1.505742442607880E+001
-4.7141299E-001	-9.040100693702698E+000
-5.3138161E-001	-1.512031233310699E+001
-4.8142749E-001	-9.080975651741028E+000
-5.4136938E-001	-1.511668324470520E+001
-4.9142674E-001	-9.138515472412109E+000
-5.5144495E-001	-1.512499201297760E+001
-5.0144500E-001	-9.123282909393311E+000
-5.6134492E-001	-1.515101647377014E+001
-5.1141751E-001	-9.141953706741333E+000
-5.7136708E-001	-1.511343669891357E+001
-5.2143586E-001	-9.143958926200867E+000
-5.8135861E-001	-1.511520302295685E+001
-5.3143126E-001	-9.086801290512085E+000
-5.9148771E-001	-1.511864125728607E+001
-5.4144573E-001	-9.082790374755859E+000
-6.0144871E-001	-1.506707012653351E+001
-5.5141062E-001	-9.054617166519165E+000
-6.1155105E-001	-1.507289600372314E+001
-5.6140220E-001	-8.987527251243591E+000
-6.2152737E-001	-1.504658508300781E+001
-5.7139760E-001	-8.982990741729736E+000
-6.3152659E-001	-1.500475525856018E+001
-5.8137393E-001	-8.925594449043274E+000
-6.4148378E-001	-1.502060878276825E+001
-5.9158313E-001	-8.885865569114685E+000
-6.5154028E-001	-1.498021137714386E+001
-6.0150218E-001	-8.878798127174377E+000
-6.6148221E-001	-1.496006059646606E+001
-6.1152816E-001	-8.813570618629456E+000
-6.7150056E-001	-1.497725105285645E+001
-6.2156558E-001	-8.781768679618835E+000
-6.8154943E-001	-1.493589806556702E+001
-6.3141197E-001	-8.766440510749817E+000
-6.9150662E-001	-1.494076931476593E+001
-6.4151055E-001	-8.699064493179321E+000
-7.0146388E-001	-1.495156085491180E+001
-6.5150970E-001	-8.695530772209167E+000
-7.1147835E-001	-1.491335999965668E+001
-6.6139066E-001	-8.675714254379272E+000
-7.2147757E-001	-1.493728339672089E+001
-6.7142040E-001	-8.615213990211487E+000
-7.3143864E-001	-1.493656730651855E+001
-6.8151885E-001	-8.625193357467651E+000
-7.4145693E-001	-1.490595865249634E+001
-6.9152576E-001	-8.595301628112793E+000
-7.5143713E-001	-1.493628072738647E+001
-7.0148677E-001	-8.556719064712524E+000
-7.6145542E-001	-1.491226160526276E+001
-7.1150893E-001	-8.571521759033203E+000
-7.7142406E-001	-1.489750671386719E+001
-7.2143561E-001	-8.527638792991638E+000
-7.8148437E-001	-1.492677795886993E+001
-7.3154175E-001	-8.506294012069702E+000
-7.9143399E-001	-1.489106059074402E+001
-7.4143404E-001	-8.516417145729065E+000
-8.0144083E-001	-1.489320945739746E+001
-7.5149816E-001	-8.465324044227600E+000
-8.1142098E-001	-1.491407644748688E+001
-7.6148975E-001	-8.467472553253174E+000
-8.2146221E-001	-1.487783348560333E+001
-7.7144319E-001	-8.461742401123047E+000
-8.3145761E-001	-1.490371453762054E+001
-7.8148055E-001	-8.419052958488464E+000
-8.4147209E-001	-1.491651189327240E+001
-7.9143780E-001	-8.441735148429871E+000
-8.5145986E-001	-1.489526236057281E+001
-8.0138743E-001	-8.436625361442566E+000
-8.6145532E-001	-1.494807481765747E+001
-8.1135607E-001	-8.418146133422852E+000
-8.7146598E-001	-1.495437812805176E+001
-8.2151186E-001	-8.472056508064270E+000
-8.8146901E-001	-1.496879851818085E+001
-8.3140421E-001	-8.477070689201355E+000
-8.9159042E-001	-1.504629874229431E+001
-8.4146452E-001	-8.509827494621277E+000
-9.0146363E-001	-1.507442390918732E+001
-8.5144460E-001	-8.593725800514221E+000
-9.1151255E-001	-1.514977443218231E+001
-8.6140186E-001	-8.629061698913574E+000
-9.2135137E-001	-1.526757633686066E+001
-8.7146217E-001	-8.727046370506287E+000
-9.3136585E-001	-1.535295450687408E+001
-8.8146901E-001	-8.853060483932495E+000
-9.4147587E-001	-1.552065587043762E+001
-8.9146441E-001	-8.947368741035461E+000
-9.5145977E-001	-1.571715044975281E+001
-9.0141785E-001	-9.130827426910400E+000
-9.6140552E-001	-1.589339768886566E+001
-9.1143996E-001	-9.310131788253784E+000
-9.7141242E-001	-1.615445256233215E+001
-9.2146206E-001	-9.468330144882202E+000
-9.8146892E-001	-1.640180158615112E+001
-9.3144608E-001	-9.716109633445740E+000
-9.9146050E-001	-1.664748024940491E+001
-9.4135743E-001	-9.918859958648682E+000
-1.0014406E+000	-1.696717238426209E+001
-9.5144069E-001	-1.014123570919037E+001
-1.0115774E+000	-1.723911309242249E+001
-9.6139032E-001	-1.041355872154236E+001
-1.0214314E+000	-1.750222015380859E+001
-9.7140861E-001	-1.061845743656158E+001
-1.0314536E+000	-1.779292774200439E+001
-9.8136580E-001	-1.085291421413422E+001
-1.0414299E+000	-1.798717808723450E+001
-9.9133837E-001	-1.109233713150024E+001
-1.0515780E+000	-1.818897318840027E+001
-1.0015438E+000	-1.125750744342804E+001
-1.0615391E+000	-1.835610175132751E+001
-1.0114665E+000	-1.144273304939270E+001
-1.0715727E+000	-1.843006658554077E+001
-1.0214543E+000	-1.158183109760284E+001
-1.0815108E+000	-1.852275109291077E+001
-1.0314956E+000	-1.164395463466644E+001
-1.0914832E+000	-1.854844212532043E+001
-1.0415101E+000	-1.173601830005646E+001
-1.1015437E+000	-1.850890326499939E+001
-1.0515054E+000	-1.175903427600861E+001
-1.1115085E+000	-1.851229429244995E+001
-1.0614512E+000	-1.173401296138763E+001
-1.1214085E+000	-1.843598794937134E+001
-1.0715001E+000	-1.174537777900696E+001
-1.1313924E+000	-1.835242414474487E+001
-1.0815184E+000	-1.167313075065613E+001
-1.1415558E+000	-1.830916142463684E+001
-1.0915024E+000	-1.160876262187958E+001
-1.1513870E+000	-1.818615627288818E+001
-1.1014901E+000	-1.156922483444214E+001
-1.1614969E+000	-1.810249614715576E+001
-1.1114589E+000	-1.145319008827209E+001
-1.1714923E+000	-1.803726792335510E+001
-1.1213969E+000	-1.139660549163818E+001
-1.1814038E+000	-1.791435766220093E+001
-1.1315260E+000	-1.132574331760406E+001
-1.1914221E+000	-1.785696125030518E+001
-1.1415787E+000	-1.121252620220184E+001
-1.2014098E+000	-1.778786635398865E+001
-1.1514367E+000	-1.117365670204163E+001
-1.2114587E+000	-1.768806648254395E+001
-1.1615275E+000	-1.109634804725647E+001
-1.2213281E+000	-1.766103911399841E+001
-1.1713282E+000	-1.101326155662537E+001