Ewe/V	<I>/mA	
1.2788872E+000	3.949023818969727E+001
1.3288031E+000	4.777392189175475E+001
1.2688612E+000	3.752323950973212E+001
1.3187847E+000	4.567461948768755E+001
1.2588161E+000	3.561749723845838E+001
1.3087091E+000	4.361812808466880E+001
1.2487367E+000	3.377624616435924E+001
1.2987901E+000	4.162318196016190E+001
1.2388177E+000	3.199240303039551E+001
1.2888405E+000	3.968266348745306E+001
1.2287612E+000	3.027788079953655E+001
1.2788031E+000	3.780769026513195E+001
1.2188612E+000	2.860976178038351E+001
1.2688612E+000	3.597565377927288E+001
1.2088085E+000	2.698876388400209E+001
1.2588733E+000	3.419165001663504E+001
1.1988590E+000	2.545693281585091E+001
1.2488437E+000	3.248506508621512E+001
1.1887376E+000	2.397441486283845E+001
1.2388941E+000	3.083630674025585E+001
1.1788949E+000	2.256420281354116E+001
1.2287765E+000	2.922804406109975E+001
1.1688613E+000	2.116868696025767E+001
1.2188193E+000	2.763362959319466E+001
1.1588315E+000	1.985565596935797E+001
1.2088621E+000	2.612045576058176E+001
1.1488285E+000	1.858671154695395E+001
1.1988819E+000	2.464949712566295E+001
1.1388330E+000	1.737946480395746E+001
1.1888254E+000	2.325234783397001E+001
1.1288720E+000	1.624526360455678E+001
1.1788071E+000	2.190815600226904E+001
1.1188422E+000	1.516331612830066E+001
1.1688155E+000	2.062494262994504E+001
1.1089003E+000	1.413684126910042E+001
1.1588391E+000	1.938497102026844E+001
1.0988362E+000	1.317019920723109E+001
1.1489049E+000	1.820186611250335E+001
1.0888445E+000	1.225688801559744E+001
1.1388599E+000	1.706982960420493E+001
1.0788147E+000	1.138783022936650E+001
1.1289026E+000	1.599860054838888E+001
1.0687239E+000	1.057966849383183E+001
1.1189187E+000	1.497242519902247E+001
1.0587744E+000	9.824223780164516E+000
1.1088965E+000	1.400681665831920E+001
1.0487827E+000	9.119623034608125E+000
1.0989279E+000	1.308695940877874E+001
1.0388331E+000	8.454406569985764E+000
1.0887606E+000	1.220411115534165E+001
1.0287232E+000	7.838470253289898E+000
1.0787613E+000	1.137811466291839E+001
1.0187926E+000	7.257018192141665E+000
1.0687660E+000	1.060043157315721E+001
1.0088049E+000	6.719991394117756E+000
1.0587591E+000	9.870686512367397E+000
9.9877894E-001	6.221996643963976E+000
1.0488286E+000	9.184811872594480E+000
9.8873395E-001	5.754547539879290E+000
1.0387836E+000	8.538320728376803E+000
9.7879201E-001	5.321741552913888E+000
1.0288073E+000	7.935881969975483E+000
9.6879655E-001	4.919135981915041E+000
1.0187317E+000	7.365785308912692E+000
9.5880115E-001	4.542821743909045E+000
1.0087172E+000	6.836308554107070E+000
9.4874847E-001	4.195278214473351E+000
9.9877131E-001	6.341984496397117E+000
9.3882567E-001	3.868962152331484E+000
9.8879123E-001	5.880287983838244E+000
9.2872334E-001	3.567978003445788E+000
9.7883016E-001	5.449308947020889E+000
9.1878521E-001	3.285899709252746E+000
9.6873933E-001	5.048441606409412E+000
9.0877831E-001	3.020959255742085E+000
9.5877826E-001	4.670322352764650E+000
8.9880198E-001	2.774774490618235E+000
9.4879055E-001	4.315220776726214E+000
8.8881046E-001	2.545720235974173E+000
9.3887526E-001	3.988305606094062E+000
8.7880355E-001	2.331511679817645E+000
9.2885697E-001	3.678820021012243E+000
8.6883104E-001	2.130463857276768E+000
9.1880047E-001	3.389888038822249E+000
8.5876691E-001	1.943909775977041E+000
9.0873635E-001	3.119876543680817E+000
8.4879065E-001	1.770036678688198E+000
8.9883250E-001	2.867834362329219E+000
8.3883721E-001	1.609826087951660E+000
8.8881046E-001	2.632712897132425E+000
8.2889140E-001	1.461405122981351E+000
8.7883407E-001	2.411590851989448E+000
8.1879675E-001	1.326549207462982E+000
8.6889219E-001	2.209569145651422E+000
8.0882806E-001	1.199625592605740E+000
8.5882419E-001	2.016655751303126E+000
7.9884791E-001	1.085330628881268E+000
8.4881353E-001	1.839928942568157E+000
7.8875709E-001	9.800315838234077E-001
8.3894789E-001	1.676984359236325E+000
7.7890676E-001	8.849718255155228E-001
8.2878071E-001	1.526608418015869E+000
7.6883119E-001	7.987580743490472E-001
8.1878912E-001	1.388584059827469E+000
7.5873268E-001	7.198624318721230E-001
8.0875552E-001	1.264589178795907E+000
7.4887860E-001	6.473335705551442E-001
7.9881740E-001	1.149298041474584E+000
7.3882592E-001	5.815609564968174E-001
7.8882200E-001	1.045811615738213E+000
7.2878087E-001	5.207619643678851E-001
7.7875406E-001	9.529615371834979E-001
7.1881604E-001	4.636706978667013E-001
7.6878917E-001	8.672571462743424E-001
7.0880526E-001	4.135004404713118E-001
7.5885105E-001	7.896723127832599E-001
6.9882518E-001	3.684386137653801E-001
7.4883276E-001	7.197500677669755E-001
6.8882978E-001	3.263579414171334E-001
7.3884118E-001	6.566515085743925E-001
6.7884201E-001	2.899099903948167E-001
7.2879988E-001	6.006912507262880E-001
6.6874731E-001	2.584506200224741E-001
7.1886563E-001	5.489406059770023E-001
6.5879387E-001	2.294405815648095E-001
7.0882827E-001	5.032345693485407E-001
6.4871448E-001	2.032768489683376E-001
6.9886720E-001	4.606221107875594E-001
6.3875347E-001	1.795250116025695E-001
6.8894821E-001	4.225038365990503E-001
6.2879241E-001	1.565221968819110E-001
6.7893368E-001	3.898534885808527E-001
6.1878556E-001	1.354219424081782E-001
6.6875494E-001	3.611879839616652E-001
6.0875195E-001	1.135951245532314E-001
6.5879005E-001	3.342602404893604E-001
5.9882146E-001	9.465957330722430E-002
6.4874125E-001	3.090028388827450E-001
5.8880317E-001	7.464540764397266E-002
6.3874203E-001	2.883819663057141E-001
5.7888407E-001	5.705062139268002E-002
6.2885350E-001	2.683902657499500E-001
5.6885815E-001	4.046702983916961E-002
6.1869007E-001	2.520238982111795E-001
5.5878639E-001	2.517926833574091E-002
6.0881311E-001	2.372754639854617E-001
5.4880250E-001	7.839154718014607E-003
5.9881002E-001	2.244295495397904E-001
5.3891397E-001	-1.031740620394475E-002
5.8880693E-001	2.121453957230433E-001
5.2876198E-001	-2.874361997579833E-002
5.7880777E-001	2.005803234436927E-001
5.1884300E-001	-4.702751849796272E-002
5.6881613E-001	1.919964154561362E-001
5.0871772E-001	-6.492191553115845E-002
5.5889714E-001	1.821840764845120E-001
4.9881393E-001	-8.366272773812811E-002
5.4871851E-001	1.741619282493405E-001
4.8886815E-001	-1.029578128866122E-001
5.3882229E-001	1.657652673768060E-001
4.7886899E-001	-1.219233313904091E-001
5.2881163E-001	1.572562596377204E-001
4.6880478E-001	-1.383196606355557E-001
5.1888496E-001	1.491517149934583E-001
4.5885521E-001	-1.567009357260722E-001
5.0880939E-001	1.377214663753323E-001
4.4882929E-001	-1.800183250623593E-001
4.9890938E-001	1.269353956860655E-001
4.3877658E-001	-2.056277616351263E-001
4.8878038E-001	1.148460101263193E-001
4.2886138E-001	-2.321510238974707E-001
4.7892237E-001	1.088462572763949E-001
4.1885835E-001	-2.605319052350290E-001
4.6877810E-001	9.740103196864036E-002
4.0894306E-001	-2.871750084792870E-001
4.5876738E-001	8.347650851104782E-002
3.9880645E-001	-3.152712408234102E-001
4.4887507E-001	8.018075952342896E-002
3.8875756E-001	-3.527154005041309E-001
4.3888351E-001	7.306494593035942E-002
3.7894154E-001	-4.013950479965582E-001
4.2886138E-001	6.102049876661853E-002
3.6886981E-001	-4.460898398184314E-001
4.1886213E-001	4.757535680398040E-002
3.5885537E-001	-4.867548352363063E-001
4.0885141E-001	3.285685550494521E-002
3.4882554E-001	-5.238469827408884E-001
3.9892861E-001	1.646052434864703E-002
3.3890265E-001	-5.573212481012531E-001
3.8883391E-001	1.509825732700490E-003
3.2894549E-001	-5.863987137289608E-001
3.7892634E-001	-1.059454870005093E-002
3.1890428E-001	-6.101355657858019E-001
3.6892715E-001	-2.130572190827823E-002
3.0889741E-001	-6.301272885472180E-001
3.5882097E-001	-3.165736051239804E-002
2.9893637E-001	-6.425162775843773E-001
3.4881407E-001	-3.969448297193234E-002
2.8884545E-001	-6.513698486720809E-001
3.3890274E-001	-4.543956971782093E-002
2.7891499E-001	-6.534296578052015E-001
3.2886150E-001	-5.065283752685668E-002
2.6892343E-001	-6.508080386647992E-001
3.1891954E-001	-5.174642574845589E-002
2.5892037E-001	-6.437072578598482E-001
3.0895850E-001	-5.415831097200804E-002
2.4889436E-001	-6.330560130231540E-001
2.9894015E-001	-5.309468544289181E-002
2.3879595E-001	-6.170866068671739E-001
2.8892943E-001	-5.240557627642856E-002
2.2886539E-001	-5.998288965692706E-001
2.7894548E-001	-5.031577223802319E-002
2.1883945E-001	-5.808408762894421E-001
2.6896161E-001	-4.767917553145518E-002
2.0885549E-001	-5.621300199452568E-001
2.5890508E-001	-4.498265818784064E-002
1.9888683E-001	-5.420185187283684E-001
2.4885245E-001	-4.277301057442728E-002
1.8886089E-001	-5.233001825856238E-001
2.3888372E-001	-4.052591265416611E-002
1.7878909E-001	-5.040425634851642E-001
2.2876994E-001	-3.792676720402990E-002
1.6885100E-001	-4.865001591981635E-001
2.1875921E-001	-3.526020875456293E-002
1.5888233E-001	-4.687181372268530E-001
2.0895863E-001	-3.323032794629832E-002
1.4883344E-001	-4.548085963024815E-001
1.9880660E-001	-3.045890688457911E-002
1.3881131E-001	-4.419776341494401E-001
1.8879594E-001	-2.902825264369746E-002
1.2894188E-001	-4.305474109509411E-001
1.7889215E-001	-2.723057425635705E-002
1.1893884E-001	-4.201358434031999E-001
1.6890059E-001	-2.588980394762519E-002
1.0898158E-001	-4.110575645577677E-001
1.5892431E-001	-2.594972731472522E-002
9.8841108E-002	-4.037544914320410E-001
1.4884104E-001	-2.639165635713769E-002
8.8895336E-002	-3.967435342424056E-001
1.3885708E-001	-2.619690739312308E-002
7.8865521E-002	-3.910284165073854E-001
1.2894568E-001	-2.636918615476758E-002
6.8938911E-002	-3.865941348029125E-001
1.1888918E-001	-2.642161867526521E-002
5.8935866E-002	-3.820924583603365E-001
1.0882506E-001	-2.749273537055534E-002
4.8844978E-002	-3.794034228605394E-001
9.8844908E-002	-2.867620776170024E-002
3.9002333E-002	-3.757256847970626E-001
8.8788398E-002	-2.935033770022444E-002
2.8934341E-002	-3.737107901012200E-001
7.8980133E-002	-3.129782452814134E-002
1.8935101E-002	-3.714861425698972E-001
6.9019072E-002	-3.193450299109901E-002
8.9588277E-003	-3.705873074484805E-001
5.9042726E-002	-3.395688953791182E-002
-1.0785912E-003	-3.702502583756169E-001
4.8925143E-002	-3.597928178222740E-002
-1.1066423E-002	-3.699805999503416E-001
3.8944989E-002	-3.726761751607352E-002
-2.1153431E-002	-3.692839946232587E-001
2.8846499E-002	-3.932745962896789E-002
-3.1148868E-002	-3.700929623024138E-001
1.8870225E-002	-4.125996514716568E-002
-4.1148107E-002	-3.696135615601261E-001
8.9205736E-003	-4.358196601855988E-002
-5.1006038E-002	-3.698757302527335E-001
-1.0023070E-003	-4.597138094843600E-002
-6.1031975E-002	-3.699731108020332E-001
-1.1138978E-002	-4.816604632080768E-002
-7.1103774E-002	-3.727744800202987E-001
-2.1023605E-002	-5.010604208298763E-002
-8.1095330E-002	-3.732164069718005E-001
-3.1164154E-002	-5.230820010982318E-002
-9.0972349E-002	-3.743324712211020E-001
-4.1083157E-002	-5.436055259961714E-002
-1.0112438E-001	-3.759803614195665E-001
-5.1067110E-002	-5.621066433834099E-002
-1.1111594E-001	-3.791637473246636E-001
-6.1043460E-002	-5.858509753849006E-002
-1.2099684E-001	-3.817104638791551E-001
-7.1027413E-002	-5.973860723715207E-002
-1.3098451E-001	-3.861896804734783E-001
-8.1060953E-002	-6.146887485303143E-002
-1.4104103E-001	-3.927886608768922E-001
-9.1182411E-002	-6.372346619472791E-002
-1.5104787E-001	-4.014849131013838E-001
-1.0109761E-001	-6.535635786313643E-002
-1.6110058E-001	-4.126979340525234E-001
-1.1105867E-001	-6.857719827516418E-002
-1.7111892E-001	-4.295212112221067E-001
-1.2109222E-001	-7.071943508059370E-002
-1.8110287E-001	-4.525090596255144E-001
-1.3103038E-001	-7.409757244236326E-002
-1.9111352E-001	-4.860058058710659E-001
-1.4109069E-001	-7.954304460801342E-002
-2.0152555E-001	-5.356592489223853E-001
-1.5139961E-001	-8.507090806961060E-002
-2.1150187E-001	-6.029748379015460E-001
-1.6128048E-001	-9.508547902691597E-002
-2.2147819E-001	-7.033002890792552E-001
-1.7145915E-001	-1.080362599562199E-001
-2.3151177E-001	-8.353398173463109E-001
-1.8159582E-001	-1.290990692727706E-001
-2.4147664E-001	-1.013594715034262E+000
-1.9151488E-001	-1.576896692607916E-001
-2.5147969E-001	-1.235233575690028E+000
-2.0150647E-001	-1.930515056147297E-001
-2.6146746E-001	-1.499949399162741E+000
-2.1145605E-001	-2.545920692238157E-001
-2.7145904E-001	-1.795480255987130E+000
-2.2147818E-001	-3.344614388895968E-001
-2.8152317E-001	-2.110418801214181E+000
-2.3146978E-001	-4.249221542302308E-001
-2.9151094E-001	-2.420480989942366E+000
-2.4152626E-001	-5.423330804880937E-001
-3.0140707E-001	-2.704004862729249E+000
-2.5141859E-001	-6.844920819880933E-001
-3.1145975E-001	-2.945216160194546E+000
-2.6147127E-001	-8.224939002710228E-001
-3.2143223E-001	-3.135949873456770E+000
-2.7154687E-001	-9.591624841970567E-001
-3.3144674E-001	-3.272423599280572E+000
-2.8154609E-001	-1.095119448269115E+000
-3.4146124E-001	-3.365191305384926E+000
-2.9146895E-001	-1.224387563911140E+000
-3.5139936E-001	-3.425136309044033E+000
-3.0151016E-001	-1.348914300694187E+000
-3.6150169E-001	-3.459509517632284E+000
-3.1151319E-001	-1.466153020952262E+000
-3.7141311E-001	-3.474692545685112E+000
-3.2148188E-001	-1.574837609833367E+000
-3.8145053E-001	-3.473860941681206E+000
-3.3143145E-001	-1.671050980979320E+000
-3.9141920E-001	-3.457142713023174E+000
-3.4151471E-001	-1.754830266915118E+000
-4.0146804E-001	-3.422657111111818E+000
-3.5146427E-001	-1.820370671795864E+000
-4.1143289E-001	-3.373925054774574E+000
-3.6148643E-001	-1.872039014217904E+000
-4.2143214E-001	-3.312324481851913E+000
-3.7153146E-001	-1.905925157023411E+000
-4.3146193E-001	-3.243338715796376E+000
-3.8143906E-001	-1.924306481492287E+000
-4.4140387E-001	-3.164278053769880E+000
-3.9152229E-001	-1.929751982875898E+000
-4.5150235E-001	-3.079652440314199E+000
-4.0143368E-001	-1.922074406754739E+000
-4.6139085E-001	-2.993543629552804E+000
-4.1152072E-001	-1.904472044869969E+000
-4.7145116E-001	-2.904131585476449E+000
-4.2146268E-001	-1.879731524224375E+000
-4.8148093E-001	-2.816592118319349E+000
-4.3144664E-001	-1.846946297907365E+000
-4.9141526E-001	-2.731292158949607E+000
-4.4142678E-001	-1.810288716765015E+000
-5.0147176E-001	-2.651699884265085E+000
-4.5150617E-001	-1.772132934308519E+000
-5.1147097E-001	-2.577043940039246E+000
-4.6136793E-001	-1.730112136579027E+000
-5.2139384E-001	-2.508432383630790E+000
-4.7147790E-001	-1.690563204241734E+000
-5.3140068E-001	-2.443483899621405E+000
-4.8142749E-001	-1.649194140060276E+000
-5.4144573E-001	-2.386632213405535E+000
-4.9145344E-001	-1.610798746931788E+000
-5.5136096E-001	-2.332484516442992E+000
-5.0141829E-001	-1.575616651890329E+000
-5.6145567E-001	-2.284524038726211E+000
-5.1147860E-001	-1.543610458280526E+000
-5.7146251E-001	-2.238510809692681E+000
-5.2144730E-001	-1.511619259329407E+000
-5.8142352E-001	-2.197433906442978E+000
-5.3140068E-001	-1.483568023232852E+000
-5.9148771E-001	-2.162513924579994E+000
-5.4149920E-001	-1.457194536340005E+000
-6.0158235E-001	-2.130410404766307E+000
-5.5138385E-001	-1.434326499116189E+000
-6.1144036E-001	-2.104239234737322E+000
-5.6133729E-001	-1.412462283583253E+000
-6.2148917E-001	-2.080247706057982E+000
-5.7138616E-001	-1.394687713361257E+000
-6.3155329E-001	-2.060585690479652E+000
-5.8140063E-001	-1.376808325449630E+000
-6.4150667E-001	-2.044818569632142E+000
-5.9159845E-001	-1.364539141748466E+000
-6.5147156E-001	-2.033096135831350E+000
-6.0152888E-001	-1.352367335674813E+000
-6.6147459E-001	-2.023321317691433E+000
-6.1146325E-001	-1.342892099829285E+000
-6.7148149E-001	-2.018475048682269E+000
-6.2155408E-001	-1.336412976769839E+000
-6.8148065E-001	-2.016699842378209E+000
-6.3145399E-001	-1.331596669028791E+000
-6.9146085E-001	-2.018130503448784E+000
-6.4154488E-001	-1.329634175581091E+000
-7.0151347E-001	-2.021883010864258E+000
-6.5150595E-001	-1.329372102139047E+000
-7.1153951E-001	-2.029867896846697E+000
-6.6148221E-001	-1.334128419558212E+000
-7.2147375E-001	-2.042316665836409E+000
-6.7151582E-001	-1.339371622777456E+000
-7.3152262E-001	-2.056990361681171E+000
-6.8161434E-001	-1.345633555861085E+000
-7.4144936E-001	-2.076113158581308E+000
-6.9144934E-001	-1.357236079141209E+000
-7.5146765E-001	-2.099460396112182E+000
-7.0150203E-001	-1.370913376995161E+000
-7.6151651E-001	-2.129474167730294E+000
-7.1143258E-001	-1.388096283463874E+000
-7.7151954E-001	-2.163165798374250E+000
-7.2150427E-001	-1.408499862633501E+000
-7.8140807E-001	-2.199201658660293E+000
-7.3146540E-001	-1.430506470156651E+000
-7.9142636E-001	-2.245005135442697E+000
-7.4150276E-001	-1.457673956366150E+000
-8.0147135E-001	-2.294351292591468E+000
-7.5146377E-001	-1.486848784428020E+000
-8.1144392E-001	-2.350169237922223E+000
-7.6153940E-001	-1.520592638090545E+000
-8.2148892E-001	-2.412758537367278E+000
-7.7146226E-001	-1.557085586529151E+000
-8.3140415E-001	-2.483654456980087E+000
-7.8148055E-001	-1.598604506137324E+000
-8.4150267E-001	-2.562213000129255E+000
-7.9139197E-001	-1.644550148178553E+000
-8.5145611E-001	-2.651977034176097E+000
-8.0145615E-001	-1.696495617137238E+000
-8.6148202E-001	-2.750647184895541E+000
-8.1142479E-001	-1.753908928702863E+000
-8.7146598E-001	-2.857624156802316E+000
-8.2145840E-001	-1.813546984803445E+000
-8.8148427E-001	-2.974795332141951E+000
-8.3136982E-001	-1.878810202374179E+000
-8.9151025E-001	-3.099366996802544E+000
-8.4142250E-001	-1.943047264043022E+000
-9.0140259E-001	-3.233271715687778E+000
-8.5145223E-001	-2.010467749015957E+000
-9.1147053E-001	-3.369475752699614E+000
-8.6139804E-001	-2.077955732158586E+000
-9.2142773E-001	-3.504728546329573E+000
-8.7148505E-001	-2.143728284274832E+000
-9.3146133E-001	-3.627600085501584E+000
-8.8136208E-001	-2.206707014757045E+000
-9.4148350E-001	-3.741528001486088E+000
-8.9151788E-001	-2.268030213374722E+000
-9.5142925E-001	-3.831981083926031E+000
-9.0138727E-001	-2.323526153377458E+000
-9.6140939E-001	-3.897881133883615E+000
-9.1153538E-001	-2.373838653751448E+000
-9.7141623E-001	-3.930681396933167E+000
-9.2137432E-001	-2.413754696939506E+000
-9.8138869E-001	-3.932935752120674E+000
-9.3141550E-001	-2.446757092195400E+000
-9.9146813E-001	-3.904839599833778E+000
-9.4144148E-001	-2.466531524471208E+000
-1.0013680E+000	-3.851635778651527E+000
-9.5140254E-001	-2.475602425780952E+000
-1.0114436E+000	-3.780889679403870E+000
-9.6144372E-001	-2.474253958346800E+000
-1.0215460E+000	-3.696496093974403E+000
-9.7137421E-001	-2.462359395681645E+000
-1.0315032E+000	-3.604102845285453E+000
-9.8138493E-001	-2.441618657579609E+000
-1.0414566E+000	-3.510803316153741E+000
-9.9136120E-001	-2.415844379686845E+000
-1.0514597E+000	-3.419983129875332E+000
-1.0014864E+000	-2.385246524623796E+000
-1.0615886E+000	-3.332061669405768E+000
-1.0115162E+000	-2.351277786142685E+000
-1.0715574E+000	-3.249870202120619E+000
-1.0214849E+000	-2.311811194700353E+000
-1.0815642E+000	-3.172996974458881E+000
-1.0314269E+000	-2.272809047324985E+000
-1.0915368E+000	-3.104737618390260E+000
-1.0415254E+000	-2.235035442838484E+000
-1.1014405E+000	-3.040223467583758E+000
-1.0514139E+000	-2.199291505065620E+000
-1.1114970E+000	-2.987753540861839E+000
-1.0615276E+000	-2.162783650790946E+000
-1.1214199E+000	-2.936564749362425E+000
-1.0714390E+000	-2.130313158035278E+000
-1.1314076E+000	-2.895143153620701E+000
-1.0814536E+000	-2.100651306264545E+000
-1.1414986E+000	-2.860770029180195E+000
-1.0914184E+000	-2.073461368972183E+000
-1.1515169E+000	-2.828981109693938E+000
-1.1015208E+000	-2.048039426990584E+000
-1.1614358E+000	-2.801633895612234E+000
-1.1114168E+000	-2.023463450226128E+000
-1.1715267E+000	-2.776631261788161E+000
-1.1215574E+000	-2.000827833717949E+000
-1.1814572E+000	-2.754399879305979E+000
-1.1314955E+000	-1.979899679913242E+000
-1.1914221E+000	-2.735494249007289E+000
-1.1415291E+000	-1.961323684337092E+000
-1.2014327E+000	-2.718903200299138E+000
-1.1514443E+000	-1.942440554207451E+000
-1.2114549E+000	-2.703443237379485E+000
-1.1613824E+000	-1.925774658427521E+000
-1.2214541E+000	-2.688544918509095E+000
-1.1714809E+000	-1.908396992028930E+000