Ewe/V	<I>/mA	
1.2785432E+000	4.200537109375000E+001
1.3285469E+000	5.075676651000975E+001
1.2685935E+000	4.029672851562498E+001
1.3186356E+000	4.893787460327150E+001
1.2585371E+000	3.865318298339844E+001
1.3086363E+000	4.716047515869138E+001
1.2485837E+000	3.703263473510742E+001
1.2985836E+000	4.540966033935547E+001
1.2386187E+000	3.543362884521486E+001
1.2886072E+000	4.370751800537107E+001
1.2286005E+000	3.386411743164064E+001
1.2785622E+000	4.202141189575195E+001
1.2186012E+000	3.233578567504884E+001
1.2685935E+000	4.035800094604491E+001
1.2086021E+000	3.085367469787599E+001
1.2585485E+000	3.872927856445313E+001
1.1986257E+000	2.940036659240724E+001
1.2485951E+000	3.714899139404298E+001
1.1886342E+000	2.796593246459960E+001
1.2385615E+000	3.559529342651365E+001
1.1786196E+000	2.656809387207031E+001
1.2286463E+000	3.406046981811522E+001
1.1686165E+000	2.522121276855469E+001
1.2185936E+000	3.255413894653321E+001
1.1585982E+000	2.390611457824707E+001
1.2086250E+000	3.107653694152827E+001
1.1486219E+000	2.262043228149415E+001
1.1986028E+000	2.965233840942381E+001
1.1385349E+000	2.136569328308104E+001
1.1886265E+000	2.825824279785149E+001
1.1286311E+000	2.015610694885254E+001
1.1786463E+000	2.688554000854492E+001
1.1185899E+000	1.899740447998047E+001
1.1685936E+000	2.554996719360352E+001
1.1086327E+000	1.787590751647949E+001
1.1585753E+000	2.426947937011718E+001
1.0986831E+000	1.678764724731445E+001
1.1485800E+000	2.302222671508790E+001
1.0886457E+000	1.573353862762451E+001
1.1385807E+000	2.181409416198730E+001
1.0785242E+000	1.471403903961181E+001
1.1286578E+000	2.062895431518555E+001
1.0685441E+000	1.375604248046875E+001
1.1185937E+000	1.949699325561522E+001
1.0585105E+000	1.283257808685300E+001
1.1086556E+000	1.841774749755859E+001
1.0485190E+000	1.193845329284667E+001
1.0986372E+000	1.737876434326171E+001
1.0385884E+000	1.108275718688965E+001
1.0885350E+000	1.636354255676270E+001
1.0285434E+000	1.028528003692627E+001
1.0785663E+000	1.540348472595213E+001
1.0185709E+000	9.529365539550781E+000
1.0685213E+000	1.450156688690186E+001
1.0084991E+000	8.796446800231934E+000
1.0584953E+000	1.364839229583737E+001
9.9854571E-001	8.094623565673828E+000
1.0485076E+000	1.283471736907958E+001
9.8849303E-001	7.437725067138672E+000
1.0385541E+000	1.205718040466309E+001
9.7850144E-001	6.818339347839355E+000
1.0285395E+000	1.131463603973388E+001
9.6852130E-001	6.230583095550536E+000
1.0185175E+000	1.063191299438476E+001
9.5851821E-001	5.662462711334229E+000
1.0085373E+000	9.995413589477536E+000
9.4853812E-001	5.128646755218504E+000
9.9856097E-001	9.391002273559565E+000
9.3858087E-001	4.636239814758298E+000
9.8853886E-001	8.813255310058594E+000
9.2850530E-001	4.173782253265379E+000
9.7850907E-001	8.281120109558103E+000
9.1854042E-001	3.724542522430419E+000
9.6851367E-001	7.794596195220947E+000
9.0851831E-001	3.287068176269532E+000
9.5855641E-001	7.339931583404542E+000
8.9855731E-001	2.887336015701294E+000
9.4849610E-001	6.906812095642088E+000
8.8851225E-001	2.514115333557129E+000
9.3855798E-001	6.496918487548811E+000
8.7855119E-001	2.161523103713989E+000
9.2855495E-001	6.127823257446288E+000
8.6848706E-001	1.817487883567811E+000
9.1854042E-001	5.792039775848387E+000
8.5856801E-001	1.496907711029053E+000
9.0854508E-001	5.472452640533447E+000
8.4849238E-001	1.204137682914734E+000
8.9856869E-001	5.167534732818602E+000
8.3856577E-001	9.376497387886040E-001
8.8861912E-001	4.882481384277341E+000
8.2856268E-001	6.771210789680477E-001
8.7860465E-001	4.637080001831052E+000
8.1850237E-001	4.229337692260744E-001
8.6859781E-001	4.405049228668211E+000
8.0852610E-001	1.878467611968513E-001
8.5856801E-001	4.185777568817137E+000
7.9855740E-001	-2.134017236530780E-002
8.4858787E-001	3.968797588348387E+000
7.8855050E-001	-2.154760584235200E-001
8.3860010E-001	3.782225513458243E+000
7.7857035E-001	-4.200025141239170E-001
8.2855886E-001	3.621782541275024E+000
7.6859403E-001	-6.128395378589637E-001
8.1859016E-001	3.469209051132196E+000
7.5860631E-001	-7.919243454933165E-001
8.0856812E-001	3.319462347030637E+000
7.4857271E-001	-9.484707474708571E-001
7.9860699E-001	3.185683631896971E+000
7.3858112E-001	-1.107920432090760E+000
7.8863072E-001	3.081319236755370E+000
7.2854751E-001	-1.268821740150452E+000
7.7853221E-001	2.985282802581786E+000
7.1855980E-001	-1.410393357276917E+000
7.6856732E-001	2.893830347061158E+000
7.0855290E-001	-1.530267238616943E+000
7.5856429E-001	2.797258901596070E+000
6.9859183E-001	-1.642271566390992E+000
7.4863762E-001	2.723378849029540E+000
6.8864608E-001	-1.764895701408387E+000
7.3856586E-001	2.669744968414307E+000
6.7856282E-001	-1.887367105484008E+000
7.2856283E-001	2.614277648925782E+000
6.6852927E-001	-1.996009778976443E+000
7.1860558E-001	2.551704883575439E+000
6.5847284E-001	-2.078752589225772E+000
7.0859873E-001	2.492493820190429E+000
6.4853084E-001	-2.173948717117309E+000
6.9859570E-001	2.451007843017578E+000
6.3851631E-001	-2.274874973297120E+000
6.8861938E-001	2.418690109252928E+000
6.2851709E-001	-2.371980905532837E+000
6.7858577E-001	2.371856164932250E+000
6.1848348E-001	-2.451591300964356E+000
6.6853690E-001	2.312339496612548E+000
6.0853010E-001	-2.520199728012084E+000
6.5848047E-001	2.274979114532471E+000
5.9849650E-001	-2.606304025650026E+000
6.4849263E-001	2.251829576492309E+000
5.8853161E-001	-2.701882123947144E+000
6.3846672E-001	2.235174226760865E+000
5.7853621E-001	-2.781568861007692E+000
6.2854761E-001	2.205988836288451E+000
5.6851411E-001	-2.847579526901246E+000
6.1852932E-001	2.178407669067383E+000
5.5854923E-001	-2.923980998992921E+000
6.0846519E-001	2.171913671493531E+000
5.4858053E-001	-3.007411336898805E+000
5.9855378E-001	2.177720212936400E+000
5.3855461E-001	-3.090077447891236E+000
5.8847821E-001	2.159918832778931E+000
5.2854395E-001	-3.153414201736449E+000
5.7852477E-001	2.120189905166626E+000
5.1859051E-001	-3.213542032241822E+000
5.6849498E-001	2.057923030853271E+000
5.0856835E-001	-3.293916273117066E+000
5.5851102E-001	2.014144802093504E+000
4.9854240E-001	-3.385750722885131E+000
5.4850417E-001	1.987022566795350E+000
4.8854700E-001	-3.467882108688357E+000
5.3855079E-001	1.955545139312743E+000
4.7862798E-001	-3.539164638519289E+000
5.2849048E-001	1.918261218070981E+000
4.6855238E-001	-3.627255487442017E+000
5.1853704E-001	1.884873986244202E+000
4.5856461E-001	-3.715116977691650E+000
5.0849968E-001	1.834830999374390E+000
4.4855392E-001	-3.778300952911376E+000
4.9853861E-001	1.732835245132442E+000
4.3860814E-001	-3.827885341644290E+000
4.8859662E-001	1.593631815910339E+000
4.2854783E-001	-3.920102024078368E+000
4.7857067E-001	1.458095860481262E+000
4.1857153E-001	-4.078405809402465E+000
4.6851420E-001	1.346931886672973E+000
4.0860283E-001	-4.247634792327879E+000
4.5856842E-001	1.239587879180908E+000
3.9855397E-001	-4.402347469329833E+000
4.4853482E-001	1.117956972122192E+000
3.8858911E-001	-4.551941394805908E+000
4.3853942E-001	9.809693455696085E-001
3.7852880E-001	-4.711773109436038E+000
4.2847911E-001	8.577339410781839E-001
3.6862886E-001	-4.902165031433107E+000
4.1855624E-001	7.400758028030392E-001
3.5854179E-001	-5.094391250610350E+000
4.0857610E-001	6.083598494529721E-001
3.4854642E-001	-5.279893493652345E+000
3.9853871E-001	4.583839893341066E-001
3.3854717E-001	-5.461269950866701E+000
3.8863111E-001	3.070328861474991E-001
3.2857087E-001	-5.670533657073975E+000
3.7860516E-001	1.751641348004341E-001
3.1857163E-001	-5.894313240051268E+000
3.6859831E-001	4.176735100336371E-002
3.0858004E-001	-6.115877532958983E+000
3.5863724E-001	-1.037772554904226E-001
2.9859990E-001	-6.322084522247316E+000
3.4861895E-001	-2.581844329833984E-001
2.8865030E-001	-6.534938526153567E+000
3.3866173E-001	-4.008257746696473E-001
2.7858618E-001	-6.774227714538576E+000
3.2865486E-001	-5.205467402935029E-001
2.6861367E-001	-7.009773063659679E+000
3.1872818E-001	-6.382048249244692E-001
2.5859919E-001	-7.225378131866457E+000
3.0869076E-001	-7.814573526382445E-001
2.4853122E-001	-7.440829658508299E+000
2.9861137E-001	-9.092768907547004E-001
2.3854727E-001	-7.652995967864996E+000
2.8875339E-001	-1.028615808486938E+000
2.2852515E-001	-7.872039222717291E+000
2.7868545E-001	-1.139244961738587E+000
2.1849537E-001	-8.063042354583757E+000
2.6868239E-001	-1.271572208404541E+000
2.0855340E-001	-8.222263145446775E+000
2.5873280E-001	-1.419408798217773E+000
1.9848165E-001	-8.368801116943359E+000
2.4855031E-001	-1.566710567474365E+000
1.8851678E-001	-8.507851982116705E+000
2.3850144E-001	-1.669699621200564E+000
1.7850611E-001	-8.629406166076663E+000
2.2855568E-001	-1.766194510459904E+000
1.6848397E-001	-8.710238456726074E+000
2.1860991E-001	-1.859174942970276E+000
1.5853056E-001	-8.753863525390628E+000
2.0849997E-001	-1.930075478553771E+000
1.4857715E-001	-8.790536117553714E+000
1.9854656E-001	-1.960330438613891E+000
1.3853210E-001	-8.814373779296872E+000
1.8850914E-001	-1.961934852600102E+000
1.2846033E-001	-8.807573699951178E+000
1.7856337E-001	-1.961782073974611E+000
1.1848783E-001	-8.762573623657232E+000
1.6854887E-001	-1.954371142387394E+000
1.0857260E-001	-8.694882202148435E+000
1.5858020E-001	-1.916476106643678E+000
9.8592468E-002	-8.627725028991705E+000
1.4851606E-001	-1.848860859870911E+000
8.8570334E-002	-8.548954963684082E+000
1.3857411E-001	-1.771848297119142E+000
7.8582563E-002	-8.442069816589353E+000
1.2855960E-001	-1.699649071693422E+000
6.8533704E-002	-8.307985305786133E+000
1.1849166E-001	-1.625004887580872E+000
5.8576476E-002	-8.183603477478030E+000
1.0858788E-001	-1.521939444541932E+000
4.8607793E-002	-8.067320919036867E+000
9.8619193E-002	-1.409858584403992E+000
3.8581844E-002	-7.943244647979739E+000
8.8608518E-002	-1.320545363426209E+000
2.8506257E-002	-7.798922920227049E+000
7.8674197E-002	-1.250408935546876E+000
1.8537574E-002	-7.647648334503174E+000
6.8644427E-002	-1.181418514251709E+000
8.5268933E-003	-7.525176811218273E+000
5.8637563E-002	-1.104329609870911E+000
-1.4494241E-003	-7.412943267822271E+000
4.8695605E-002	-1.026476550102235E+000
-1.1452467E-002	-7.290853786468517E+000
3.8684927E-002	-9.707035541534426E-001
-2.1497509E-002	-7.163645839691164E+000
2.8620794E-002	-9.295232295989990E-001
-3.1408921E-002	-7.047515392303467E+000
1.8724654E-002	-8.803971171379104E-001
-4.1446324E-002	-6.960570621490476E+000
8.7063378E-003	-8.189704298973082E-001
-5.1353917E-002	-6.877598667144774E+000
-1.3654291E-003	-7.693859457969667E-001
-6.1364595E-002	-6.786681365966800E+000
-1.1311203E-002	-7.386725783348087E-001
-7.1459271E-002	-6.699736881256115E+000
-2.1352423E-002	-7.120085477828981E-001
-8.1469946E-002	-6.634871673584001E+000
-3.1321105E-002	-6.723562002182009E-001
-9.1419540E-002	-6.591628742218020E+000
-4.1327968E-002	-6.332387208938597E-001
-1.0140349E-001	-6.546857070922854E+000
-5.1273741E-002	-6.147496223449709E-001
-1.1138745E-001	-6.496891212463396E+000
-6.1299693E-002	-6.094779014587406E-001
-1.2140194E-001	-6.449828052520751E+000
-7.1348548E-002	-5.911415696144102E-001
-1.3136680E-001	-6.426907348632824E+000
-8.1332505E-002	-5.601990401744850E-001
-1.4142330E-001	-6.412925910949724E+000
-9.1320269E-002	-5.404110550880432E-001
-1.5133853E-001	-6.391457176208498E+000
-1.0135768E-001	-5.406402587890629E-001
-1.6137592E-001	-6.365327835083008E+000
-1.1128817E-001	-5.415571212768553E-001
-1.7154315E-001	-6.375106906890871E+000
-1.2134468E-001	-5.298677206039430E-001
-1.8151565E-001	-6.396040916442871E+000
-1.3137443E-001	-5.145110130310062E-001
-1.9155306E-001	-6.419190597534183E+000
-1.4132021E-001	-5.181018710136414E-001
-2.0151028E-001	-6.436457633972168E+000
-1.5128127E-001	-5.410986602306367E-001
-2.1149805E-001	-6.469615364074706E+000
-1.6136830E-001	-5.601226210594179E-001
-2.2151254E-001	-6.542578887939456E+000
-1.7144769E-001	-5.729580760002140E-001
-2.3146978E-001	-6.638691711425778E+000
-1.8138202E-001	-5.977121233940128E-001
-2.4153391E-001	-6.747563552856448E+000
-1.9138125E-001	-6.512694597244266E-001
-2.5144532E-001	-6.880043601989748E+000
-2.0133084E-001	-7.293516039848331E-001
-2.6151708E-001	-7.075172805786131E+000
-2.1135297E-001	-8.216444611549392E-001
-2.7146286E-001	-7.333409118652341E+000
-2.2141328E-001	-9.296760320663466E-001
-2.8150028E-001	-7.651774120330828E+000
-2.3138197E-001	-1.096689438819885E+000
-2.9148802E-001	-8.020410346984860E+000
-2.4140027E-001	-1.344153523445129E+000
-3.0140710E-001	-8.468886756896978E+000
-2.5142622E-001	-1.718290901184083E+000
-3.1156665E-001	-9.012330055236816E+000
-2.6147890E-001	-2.167301750183107E+000
-3.2150477E-001	-9.633778953552252E+000
-2.7147812E-001	-2.681941270828247E+000
-3.3147728E-001	-1.030190773010254E+001
-2.8151169E-001	-3.272982168197633E+000
-3.4140778E-001	-1.101557350158691E+001
-2.9142314E-001	-3.915899753570557E+000
-3.5142609E-001	-1.178776206970215E+001
-3.0151016E-001	-4.590371131896973E+000
-3.6146733E-001	-1.261213226318360E+001
-3.1144831E-001	-5.288755798339842E+000
-3.7149328E-001	-1.343856697082521E+001
-3.2142845E-001	-6.027481079101563E+000
-3.8144287E-001	-1.424895572662354E+001
-3.3142766E-001	-6.788973522186296E+000
-3.9142683E-001	-1.504184875488281E+001
-3.4149560E-001	-7.534421157836917E+000
-4.0146804E-001	-1.583626956939698E+001
-3.5141465E-001	-8.243885040283203E+000
-4.1142526E-001	-1.660280609130859E+001
-3.6152843E-001	-8.927142143249512E+000
-4.2145506E-001	-1.729973754882812E+001
-3.7148181E-001	-9.596952629089358E+000
-4.3149245E-001	-1.793211250305177E+001
-3.8143140E-001	-1.022252769470215E+001
-4.4143823E-001	-1.851581954956055E+001
-3.9146501E-001	-1.077574996948242E+001
-4.5143363E-001	-1.906636657714844E+001
-4.0151387E-001	-1.126319026947021E+001
-4.6150920E-001	-1.954204177856445E+001
-4.1152835E-001	-1.170685329437256E+001
-4.7157335E-001	-1.993703689575196E+001
-4.2138252E-001	-1.210925884246826E+001
-4.8146948E-001	-2.026441650390626E+001
-4.3139321E-001	-1.244557762145996E+001
-4.9144965E-001	-2.055550575256348E+001
-4.4149551E-001	-1.271183624267579E+001
-5.0137252E-001	-2.081282615661621E+001
-4.5148328E-001	-1.293003902435302E+001
-5.1144421E-001	-2.101269226074220E+001
-4.6139851E-001	-1.312570285797119E+001
-5.2137858E-001	-2.115655708312988E+001
-4.7146645E-001	-1.329722404479980E+001
-5.3146178E-001	-2.128330459594727E+001
-4.8137024E-001	-1.341870155334476E+001
-5.4145336E-001	-2.140195617675781E+001
-4.9141908E-001	-1.349617252349856E+001
-5.5140680E-001	-2.150548019409180E+001
-5.0142211E-001	-1.357242145538333E+001
-5.6139076E-001	-2.156774787902833E+001
-5.1141751E-001	-1.365019836425782E+001
-5.7138616E-001	-2.161206130981446E+001
-5.2139002E-001	-1.371307640075685E+001
-5.8135867E-001	-2.166615371704103E+001
-5.3139305E-001	-1.374134483337403E+001
-5.9153348E-001	-2.174942970275879E+001
-5.4136938E-001	-1.375624313354493E+001
-6.0152507E-001	-2.179481277465820E+001
-5.5142587E-001	-1.378703250885010E+001
-6.1147088E-001	-2.181154479980469E+001
-5.6134874E-001	-1.382485179901124E+001
-6.2144721E-001	-2.184340438842773E+001
-5.7140905E-001	-1.384914646148684E+001
-6.3148838E-001	-2.189688491821289E+001
-5.8133191E-001	-1.385472450256347E+001
-6.4147234E-001	-2.195785331726074E+001
-5.9151059E-001	-1.388200016021729E+001
-6.5147924E-001	-2.199429702758789E+001
-6.0148311E-001	-1.392975025177002E+001
-6.6152424E-001	-2.203012924194337E+001
-6.1147088E-001	-1.397734909057617E+001
-6.7150056E-001	-2.209453582763672E+001
-6.2157321E-001	-1.400936069488526E+001
-6.8145019E-001	-2.217689704895020E+001
-6.3149607E-001	-1.403961601257325E+001
-6.9147229E-001	-2.226040267944336E+001
-6.4143419E-001	-1.409569396972660E+001
-7.0150590E-001	-2.232251739501953E+001
-6.5139520E-001	-1.416858119964600E+001
-7.1140963E-001	-2.239295959472656E+001
-6.6153955E-001	-1.423604412078858E+001
-7.2146994E-001	-2.249541282653809E+001
-6.7148912E-001	-1.428578128814698E+001
-7.3146158E-001	-2.260993919372558E+001
-6.8141961E-001	-1.434865951538086E+001
-7.4144936E-001	-2.269826011657716E+001
-6.9137681E-001	-1.443583335876465E+001
-7.5152493E-001	-2.277779197692871E+001
-7.0149821E-001	-1.452629241943359E+001
-7.6143247E-001	-2.287619819641114E+001
-7.1149367E-001	-1.459742183685303E+001
-7.7148515E-001	-2.299416236877443E+001
-7.2151959E-001	-1.465999507904053E+001
-7.8139275E-001	-2.310066413879395E+001
-7.3146915E-001	-1.473853530883790E+001
-7.9144543E-001	-2.318822097778320E+001
-7.4151421E-001	-1.483197422027588E+001
-8.0145615E-001	-2.326225471496582E+001
-7.5149816E-001	-1.491464080810547E+001
-8.1142861E-001	-2.336547355651857E+001
-7.6137900E-001	-1.497087230682374E+001
-8.2143933E-001	-2.347457389831544E+001
-7.7138972E-001	-1.502916622161865E+001
-8.3142710E-001	-2.355785026550294E+001
-7.8138131E-001	-1.511160354614258E+001
-8.4151411E-001	-2.362195091247560E+001
-7.9146457E-001	-1.519243583679201E+001
-8.5148281E-001	-2.370186805725098E+001
-8.0149049E-001	-1.524943161010742E+001
-8.6145908E-001	-2.379950866699218E+001
-8.1144005E-001	-1.529641857147217E+001
-8.7146598E-001	-2.389569740295411E+001
-8.2146221E-001	-1.536181755065918E+001
-8.8140029E-001	-2.396514587402345E+001
-8.3142322E-001	-1.544456100463867E+001
-8.9145678E-001	-2.403314399719238E+001
-8.4148741E-001	-1.552172622680663E+001
-9.0150565E-001	-2.412039337158203E+001
-8.5150194E-001	-1.558238868713379E+001
-9.1141707E-001	-2.422674522399902E+001
-8.6143619E-001	-1.564465503692627E+001
-9.2145824E-001	-2.431842613220215E+001
-8.7141252E-001	-1.573465652465821E+001
-9.3145752E-001	-2.439314651489258E+001
-8.8144994E-001	-1.583542976379394E+001
-9.4145292E-001	-2.448635711669922E+001
-8.9146060E-001	-1.592863998413085E+001
-9.5132613E-001	-2.461524429321290E+001
-9.0140259E-001	-1.601749496459962E+001
-9.6145135E-001	-2.476155471801758E+001
-9.1137505E-001	-1.614118804931641E+001
-9.7136658E-001	-2.490633583068848E+001
-9.2142010E-001	-1.630499305725098E+001
-9.8141927E-001	-2.506425704956055E+001
-9.3146133E-001	-1.648583374023437E+001
-9.9141467E-001	-2.527054023742676E+001
-9.4135749E-001	-1.666690597534179E+001
-1.0013642E+000	-2.552785949707032E+001
-9.5143688E-001	-1.687410736083984E+001
-1.0114628E+000	-2.580940017700195E+001
-9.6131390E-001	-1.712478027343749E+001
-1.0214887E+000	-2.607428321838381E+001
-9.7144675E-001	-1.741036796569824E+001
-1.0315375E+000	-2.635712013244628E+001
-9.8142689E-001	-1.767968254089357E+001
-1.0414567E+000	-2.667701416015626E+001
-9.9145669E-001	-1.794074592590331E+001
-1.0515857E+000	-2.699957962036132E+001
-1.0015666E+000	-1.822702255249024E+001
-1.0615429E+000	-2.728325805664065E+001
-1.0116193E+000	-1.851177024841309E+001
-1.0714505E+000	-2.753836212158203E+001
-1.0214849E+000	-1.877787551879882E+001
-1.0814382E+000	-2.779025650024414E+001
-1.0314460E+000	-1.899424400329590E+001
-1.0914565E+000	-2.801739807128905E+001
-1.0415635E+000	-1.918173484802247E+001
-1.1014863E+000	-2.820167884826662E+001
-1.0514940E+000	-1.935317802429199E+001
-1.1114169E+000	-2.831398887634282E+001
-1.0614779E+000	-1.949879875183106E+001
-1.1214046E+000	-2.838007698059081E+001
-1.0714238E+000	-1.958253440856933E+001
-1.1315336E+000	-2.843561973571778E+001
-1.0814650E+000	-1.960667686462403E+001
-1.1414832E+000	-2.844700393676760E+001
-1.0914375E+000	-1.959017448425294E+001
-1.1515282E+000	-2.840513458251954E+001
-1.1014940E+000	-1.956206016540528E+001
-1.1615351E+000	-2.831895561218261E+001
-1.1114435E+000	-1.950880661010743E+001
-1.1713970E+000	-2.822459793090820E+001
-1.1214848E+000	-1.940727043151855E+001
-1.1814343E+000	-2.813436851501467E+001
-1.1314726E+000	-1.927463684082031E+001
-1.1914335E+000	-2.802526741027833E+001
-1.1414680E+000	-1.914697113037110E+001
-1.2014977E+000	-2.787827186584479E+001
-1.1514519E+000	-1.904069786071778E+001
-1.2115198E+000	-2.772936630249023E+001
-1.1614932E+000	-1.891165504455566E+001
-1.2214044E+000	-2.761002769470215E+001
-1.1714313E+000	-1.875487785339357E+001