Ewe/V	<I>/mA	
1.2788374E+000	4.056100082397461E+001
1.3287687E+000	4.915023348881641E+001
1.2689070E+000	3.873455311701844E+001
1.3189145E+000	4.720718794602615E+001
1.2588276E+000	3.696482027493988E+001
1.3087665E+000	4.528874632028433E+001
1.2488055E+000	3.522680605374848E+001
1.2987901E+000	4.341798679645240E+001
1.2389169E+000	3.353041443457970E+001
1.2888634E+000	4.157977133530824E+001
1.2288033E+000	3.187709331512451E+001
1.2788948E+000	3.978671968900238E+001
1.2189032E+000	3.028410816192616E+001
1.2688383E+000	3.804425136859601E+001
1.2088314E+000	2.872698996617244E+001
1.2588352E+000	3.634083879910980E+001
1.1987903E+000	2.721953303997327E+001
1.2488666E+000	3.467766981858475E+001
1.1888368E+000	2.575446260892426E+001
1.2388674E+000	3.304801266009991E+001
1.1788262E+000	2.434676727881798E+001
1.2289292E+000	3.148390483856190E+001
1.1688613E+000	2.297784526531507E+001
1.2188650E+000	2.994125659649183E+001
1.1589041E+000	2.164710895831769E+001
1.2087895E+000	2.843162426581750E+001
1.1487750E+000	2.037004573528577E+001
1.1989238E+000	2.697516588064337E+001
1.1388178E+000	1.914182054079492E+001
1.1889170E+000	2.557142221010645E+001
1.1288759E+000	1.796944185403675E+001
1.1787879E+000	2.419810749934265E+001
1.1189301E+000	1.683558684128982E+001
1.1688805E+000	2.287320364438571E+001
1.1089308E+000	1.575919529107901E+001
1.1589003E+000	2.159321792309101E+001
1.0988934E+000	1.472771743627695E+001
1.1487979E+000	2.035701436262866E+001
1.0888751E+000	1.375358533859247E+001
1.1389362E+000	1.916250661703253E+001
1.0788683E+000	1.281267298184906E+001
1.1289216E+000	1.802234869736893E+001
1.0688347E+000	1.193057441711426E+001
1.1189301E+000	1.691767333104060E+001
1.0587667E+000	1.109218780811016E+001
1.1088088E+000	1.585847319089450E+001
1.0488324E+000	1.030509229806751E+001
1.0988095E+000	1.484581617208624E+001
1.0388714E+000	9.566716340871963E+000
1.0888064E+000	1.387739984805762E+001
1.0287576E+000	8.872889555417576E+000
1.0788492E+000	1.296444749832148E+001
1.0188882E+000	8.217836196605958E+000
1.0687544E+000	1.209028299038226E+001
1.0089233E+000	7.607697982054491E+000
1.0588889E+000	1.126357610409073E+001
9.9882859E-001	7.037640810012817E+000
1.0487905E+000	1.048642782064582E+001
9.8875684E-001	6.505299659875725E+000
1.0388713E+000	9.756808977860658E+000
9.7878438E-001	6.011878783886232E+000
1.0287806E+000	9.069123268127441E+000
9.6875459E-001	5.550855324818542E+000
1.0187430E+000	8.419976014357331E+000
9.5880497E-001	5.122816342573884E+000
1.0088584E+000	7.813555534069337E+000
9.4888973E-001	4.724927021906929E+000
9.9884391E-001	7.248420421893783E+000
9.3887532E-001	4.358729729285599E+000
9.8889047E-001	6.720971822738619E+000
9.2883021E-001	4.013983102945176E+000
9.7879201E-001	6.229108498646667E+000
9.1883099E-001	3.696946822679958E+000
9.6872783E-001	5.768628542239846E+000
9.0877450E-001	3.398570170769325E+000
9.5881647E-001	5.341882925767152E+000
8.9882493E-001	3.123907309312086E+000
9.4887066E-001	4.943464334194477E+000
8.8876843E-001	2.868006623708276E+000
9.3885237E-001	4.570170329167290E+000
8.7879592E-001	2.628841106708229E+000
9.2879581E-001	4.225996549312885E+000
8.6886543E-001	2.404470709654001E+000
9.1892648E-001	3.900159945854767E+000
8.5880893E-001	2.196791172027588E+000
9.0888143E-001	3.595862049322854E+000
8.4886312E-001	2.001629833991711E+000
8.9880204E-001	3.313044639734123E+000
8.3889830E-001	1.822027926261609E+000
8.8882571E-001	3.050958459193886E+000
8.2872725E-001	1.653019221929402E+000
8.7887990E-001	2.805401710363526E+000
8.1881970E-001	1.496984197543213E+000
8.6894941E-001	2.575654002336353E+000
8.0890441E-001	1.355421213003305E+000
8.5885471E-001	2.362861339862526E+000
7.9880977E-001	1.221660132591541E+000
8.4886694E-001	2.167185847575844E+000
7.8880668E-001	1.096949545236733E+000
8.3886391E-001	1.983734460977406E+000
7.7888000E-001	9.809958040714264E-001
8.2883418E-001	1.814519983071547E+000
7.6896477E-001	8.706252162273120E-001
8.1893420E-001	1.657059807043810E+000
7.5882429E-001	7.692611561371727E-001
8.0890441E-001	1.515173586515278E+000
7.4895495E-001	6.793720355400659E-001
7.9879069E-001	1.384145186497612E+000
7.3888695E-001	6.039256361814642E-001
7.8882962E-001	1.268896703536694E+000
7.2880375E-001	5.374711614388676E-001
7.7881891E-001	1.160465510991902E+000
7.1883893E-001	4.789506770097292E-001
7.6879680E-001	1.062128094526438E+000
7.0876712E-001	4.259545550896573E-001
7.5886631E-001	9.747073810834141E-001
6.9889778E-001	3.807308192436505E-001
7.4890912E-001	8.953234209464114E-001
6.8886793E-001	3.364620976723156E-001
7.3884499E-001	8.271058270564446E-001
6.7888021E-001	2.972035465332179E-001
7.2891450E-001	7.621499300003052E-001
6.6875499E-001	2.565345380168687E-001
7.1888089E-001	7.028654011396238E-001
6.5881681E-001	2.200969669681330E-001
7.0888931E-001	6.514561428473549E-001
6.4874882E-001	1.867742171654330E-001
6.9889772E-001	6.048071911701784E-001
6.3884133E-001	1.554349471743288E-001
6.8890995E-001	5.621547034153567E-001
6.2875426E-001	1.266815957541649E-001
6.7889547E-001	5.250853116695691E-001
6.1878556E-001	9.641489816399718E-002
6.6881984E-001	4.905431018425870E-001
6.0877872E-001	6.754399893375546E-002
6.5884739E-001	4.619660618213501E-001
5.9885585E-001	4.211115923065406E-002
6.4880610E-001	4.359749120015355E-001
5.8876115E-001	1.428343212375274E-002
6.3880306E-001	4.100572065665160E-001
5.7875431E-001	-1.370591650573680E-002
6.2877721E-001	3.907217841881963E-001
5.6875122E-001	-3.912406615339803E-002
6.1878181E-001	3.720181400959302E-001
5.5880553E-001	-6.582046973590666E-002
6.0881692E-001	3.558562959615998E-001
5.4873377E-001	-9.085660857649991E-002
5.9876043E-001	3.393271645674334E-001
5.3880703E-001	-1.171269216216528E-001
5.8876503E-001	3.246639760640955E-001
5.2876580E-001	-1.439849470670409E-001
5.7878482E-001	3.117345158870393E-001
5.1877421E-001	-1.697557190289869E-001
5.6881613E-001	2.985993669583249E-001
5.0882077E-001	-1.944392237525725E-001
5.5872154E-001	2.861841355378811E-001
4.9881011E-001	-2.226342713603607E-001
5.4883683E-001	2.744006835497343E-001
4.8888344E-001	-2.534740028473053E-001
5.3883761E-001	2.579597016939745E-001
4.7876585E-001	-2.883394578328504E-001
5.2883077E-001	2.414158840592089E-001
4.6892312E-001	-3.253059673767823E-001
5.1889640E-001	2.276489522594671E-001
4.5887050E-001	-3.666655524418916E-001
5.0883228E-001	2.161446586251250E-001
4.4885978E-001	-4.103318682083716E-001
4.9884069E-001	2.110904134236848E-001
4.3890259E-001	-4.545271155925903E-001
4.8876891E-001	1.892278761817856E-001
4.2888808E-001	-4.955487732703867E-001
4.7884220E-001	1.739916709753180E-001
4.1891560E-001	-5.412426682618952E-001
4.6890411E-001	1.712735461500975E-001
4.0879413E-001	-5.961194473963527E-001
4.5882085E-001	1.599455739443116E-001
3.9886373E-001	-6.741517025690822E-001
4.4876060E-001	1.433429689361496E-001
3.8880333E-001	-7.475998149468381E-001
4.3895981E-001	1.213922726993378E-001
3.7896451E-001	-8.231343489426832E-001
4.2882320E-001	9.870694434413529E-002
3.6885840E-001	-8.948488006225013E-001
4.1888884E-001	7.347979955375172E-002
3.5884386E-001	-9.678120406774369E-001
4.0891257E-001	4.629854198831779E-002
3.4895536E-001	-1.037190405222088E+000
3.9889044E-001	1.876466538613806E-002
3.3888358E-001	-1.103777147256411E+000
3.8893706E-001	-8.563517431656897E-003
3.2882705E-001	-1.166308760643005E+000
3.7888435E-001	-3.512768741123951E-002
3.1896535E-001	-1.224755777762487E+000
3.6890808E-001	-5.882680516403460E-002
3.0890882E-001	-1.276708717529590E+000
3.5887438E-001	-7.977841049432755E-002
2.9888669E-001	-1.322079383409939E+000
3.4892100E-001	-9.927545144007777E-002
2.8895620E-001	-1.358399359079510E+000
3.3891416E-001	-1.173620009078430E-001
2.7906770E-001	-1.386947086224193E+000
3.2891873E-001	-1.303943240871796E-001
2.6900357E-001	-1.407208140079796E+000
3.1887749E-001	-1.429711591738921E-001
2.5886691E-001	-1.417448832438541E+000
3.0889735E-001	-1.501705216673705E-001
2.4884857E-001	-1.418771202747642E+000
2.9899743E-001	-1.548280733136032E-001
2.3885694E-001	-1.408074947503897E+000
2.8897530E-001	-1.556655523868713E-001
2.2890356E-001	-1.389724016189575E+000
2.7891111E-001	-1.551366110260672E-001
2.1890441E-001	-1.364878865388723E+000
2.6898062E-001	-1.517132492019579E-001
2.0880972E-001	-1.332995955760666E+000
2.5897378E-001	-1.476140159827012E-001
1.9884104E-001	-1.299202992365913E+000
2.4891353E-001	-1.416635186626360E-001
1.8895254E-001	-1.262236512624302E+000
2.3883025E-001	-1.324512826708648E-001
1.7884636E-001	-1.225196572450491E+000
2.2880818E-001	-1.255310776715095E-001
1.6888531E-001	-1.185350317221422E+000
2.1880515E-001	-1.161425219705474E-001
1.5880978E-001	-1.145327673508571E+000
2.0887458E-001	-1.089431611964335E-001
1.4890979E-001	-1.109845161437988E+000
1.9892493E-001	-1.011267164005684E-001
1.3876931E-001	-1.076302046959217E+000
1.8889527E-001	-9.461790466537856E-002
1.2890750E-001	-1.043346620523012E+000
1.7889215E-001	-8.686023004926180E-002
1.1895025E-001	-1.013535405580816E+000
1.6880134E-001	-8.151213796092913E-002
1.0893192E-001	-9.848701793413905E-001
1.5885168E-001	-7.594364967483747E-002
9.8890699E-002	-9.611563292833498E-001
1.4886393E-001	-7.122733529943692E-002
8.8979296E-002	-9.382359316715827E-001
1.3895634E-001	-6.887652796621513E-002
7.8831218E-002	-9.185919509484251E-001
1.2888081E-001	-6.398390147548455E-002
6.8889245E-002	-9.000058288757629E-001
1.1884339E-001	-6.289664842188381E-002
5.8905292E-002	-8.841378895136049E-001
1.0888233E-001	-6.173593235703617E-002
4.8902247E-002	-8.690633292381591E-001
9.8864004E-002	-5.913534574210644E-002
3.8906809E-002	-8.582055064348078E-001
8.8891529E-002	-5.954673814658934E-002
2.8857982E-002	-8.468040480063515E-001
7.8907579E-002	-5.859172358535804E-002
1.8942706E-002	-8.374449175137748E-001
6.8866350E-002	-5.923819685211562E-002
8.9091649E-003	-8.282767259157637E-001
5.8798362E-002	-5.941450810776328E-002
-1.1663595E-003	-8.212977441457596E-001
4.8791513E-002	-6.032544632370651E-002
-1.1104528E-002	-8.154794665483331E-001
3.8803756E-002	-6.173593335999905E-002
-2.1073269E-002	-8.112774262061482E-001
2.8949628E-002	-6.229425021089052E-002
-3.1091599E-002	-8.079862869702872E-001
1.8866347E-002	-6.443936592684363E-002
-4.1056462E-002	-8.032112098657167E-001
8.9664338E-003	-6.604085748012245E-002
-5.1055629E-002	-8.013011515140533E-001
-9.9462643E-004	-6.974338797422558E-002
-6.1188571E-002	-8.002580106258392E-001
-1.1116011E-002	-7.185911988982785E-002
-7.1107574E-002	-7.994499275317564E-001
-2.1103768E-002	-7.152118505193636E-002
-8.1072435E-002	-7.991119989982032E-001
-3.1133581E-002	-7.598773189462160E-002
-9.1102175E-002	-8.011983312093314E-001
-4.1079354E-002	-7.836792503411949E-002
-1.0101357E-001	-8.019182131840634E-001
-5.1181652E-002	-8.104197537669766E-002
-1.1110066E-001	-8.029614320168150E-001
-6.1245766E-002	-8.171783101100205E-002
-1.2113427E-001	-8.071194084791031E-001
-7.1027413E-002	-8.505304730855501E-002
-1.3108385E-001	-8.127466806998616E-001
-8.1160277E-002	-8.721285256055683E-002
-1.4108689E-001	-8.214446673026465E-001
-9.1136552E-002	-8.791809643690407E-002
-1.5106323E-001	-8.318470097505128E-001
-1.0108232E-001	-8.976936254363793E-002
-1.6104332E-001	-8.474211394786870E-001
-1.1101662E-001	-9.223771381836698E-002
-1.7116478E-001	-8.719283365286314E-001
-1.2094337E-001	-9.574923406426716E-002
-1.8110287E-001	-9.018130164880018E-001
-1.3124797E-001	-9.918729903606266E-002
-1.9118227E-001	-9.433930401618662E-001
-1.4104871E-001	-1.054463357879567E-001
-2.0146829E-001	-1.001311187560742E+000
-1.5143397E-001	-1.126309997187211E-001
-2.1154004E-001	-1.084706210173096E+000
-1.6141412E-001	-1.245172877724356E-001
-2.2151637E-001	-1.198132867996509E+000
-1.7145152E-001	-1.446901966746039E-001
-2.3158050E-001	-1.351978696309605E+000
-1.8145074E-001	-1.691386252641678E-001
-2.4149191E-001	-1.559349720294662E+000
-1.9151105E-001	-2.061638975372681E-001
-2.5151783E-001	-1.815779167872208E+000
-2.0155992E-001	-2.560745758505968E-001
-2.6154381E-001	-2.135768633622389E+000
-2.1138351E-001	-3.186061382293701E-001
-2.7148196E-001	-2.507475963005660E+000
-2.2152019E-001	-4.260969826808347E-001
-2.8143156E-001	-2.920219668975244E+000
-2.3148122E-001	-5.650740128297072E-001
-2.9152623E-001	-3.357308974632858E+000
-2.4148428E-001	-7.158492161677432E-001
-3.0149108E-001	-3.802728726313667E+000
-2.5144151E-001	-9.241457535670352E-001
-3.1147119E-001	-4.233662220147949E+000
-2.6143309E-001	-1.174330816819118E+000
-3.2143223E-001	-4.626012361966648E+000
-2.7148193E-001	-1.418065978930546E+000
-3.3156130E-001	-4.968364128699669E+000
-2.8148499E-001	-1.654484051924486E+000
-3.4148797E-001	-5.247405143884521E+000
-2.9155675E-001	-1.884217092624084E+000
-3.5149100E-001	-5.463033547768234E+000
-3.0144909E-001	-2.100124423320480E+000
-3.6143297E-001	-5.620596555563125E+000
-3.1148645E-001	-2.301574193514309E+000
-3.7145129E-001	-5.734184980392484E+000
-3.2147807E-001	-2.489036853496849E+000
-3.8145435E-001	-5.811438377086944E+000
-3.3144674E-001	-2.664010653128997E+000
-3.9148408E-001	-5.863464868985691E+000
-3.4143832E-001	-2.821617768361016E+000
-4.0147951E-001	-5.896434857295112E+000
-3.5152918E-001	-2.967074302526619E+000
-4.1151309E-001	-5.909540854967560E+000
-3.6149788E-001	-3.093562777225792E+000
-4.2139015E-001	-5.905500356967632E+000
-3.7145892E-001	-3.205167403587936E+000
-4.3142372E-001	-5.886121052962096E+000
-3.8143525E-001	-3.294409944460941E+000
-4.4148788E-001	-5.850696838819090E+000
-3.9145353E-001	-3.367740741142867E+000
-4.5144892E-001	-5.800110560197112E+000
-4.0149477E-001	-3.418870806694045E+000
-4.6141377E-001	-5.737446913352386E+000
-4.1149017E-001	-3.451532290532036E+000
-4.7139391E-001	-5.661794644135695E+000
-4.2145884E-001	-3.463359951972961E+000
-4.8140839E-001	-5.576607172305767E+000
-4.3141988E-001	-3.459539926969089E+000
-4.9145344E-001	-5.482941847581145E+000
-4.4148022E-001	-3.440072169670700E+000
-5.0144506E-001	-5.384222525816698E+000
-4.5147562E-001	-3.404721837777359E+000
-5.1142895E-001	-5.282035900996284E+000
-4.6144432E-001	-3.359277642690216E+000
-5.2142060E-001	-5.177571700169487E+000
-4.7142062E-001	-3.304166032717777E+000
-5.3143507E-001	-5.077280301314133E+000
-4.8138168E-001	-3.246747356194717E+000
-5.4136938E-001	-4.981278712932877E+000
-4.9144578E-001	-3.182100002582256E+000
-5.5146408E-001	-4.886864130313580E+000
-5.0142974E-001	-3.115190084163963E+000
-5.6137931E-001	-4.795344499441299E+000
-5.1135641E-001	-3.047574822719284E+000
-5.7139379E-001	-4.709877399297859E+000
-5.2145112E-001	-2.982868763116699E+000
-5.8145791E-001	-4.627334741445694E+000
-5.3150761E-001	-2.916722884544967E+000
-5.9150678E-001	-4.554753725345318E+000
-5.4140759E-001	-2.853985483829796E+000
-6.0151362E-001	-4.481569766998291E+000
-5.5135715E-001	-2.792805827580963E+000
-6.1145943E-001	-4.412999758353607E+000
-5.6137544E-001	-2.735622332646294E+000
-6.2147772E-001	-4.352363604765673E+000
-5.7137853E-001	-2.678850054740906E+000
-6.3144255E-001	-4.295679679283737E+000
-5.8144265E-001	-2.627822912656345E+000
-6.4150667E-001	-4.244475878202000E+000
-5.9141129E-001	-2.581673392882714E+000
-6.5136462E-001	-4.198106178870567E+000
-6.0146403E-001	-2.538462611345144E+000
-6.6151279E-001	-4.158215871224044E+000
-6.1149758E-001	-2.498778049762432E+000
-6.7147768E-001	-4.125083978359520E+000
-6.2153500E-001	-2.463618626961349E+000
-6.8151122E-001	-4.097197404274581E+000
-6.3151127E-001	-2.433704660489013E+000
-6.9150281E-001	-4.070648266718941E+000
-6.4149141E-001	-2.408594910915085E+000
-7.0141041E-001	-4.050636786680956E+000
-6.5146399E-001	-2.386805846140938E+000
-7.1147078E-001	-4.034019396855278E+000
-6.6148221E-001	-2.370423747942997E+000
-7.2150427E-001	-4.024366461313697E+000
-6.7152345E-001	-2.356539203570438E+000
-7.3140806E-001	-4.018533367377074E+000
-6.8144637E-001	-2.349986287263723E+000
-7.4139589E-001	-4.018900981316207E+000
-6.9146848E-001	-2.347459151194649E+000
-7.5146759E-001	-4.026687979698181E+000
-7.0147914E-001	-2.352234170987060E+000
-7.6153177E-001	-4.041600740872898E+000
-7.1142107E-001	-2.359521856674781E+000
-7.7152336E-001	-4.064638963112472E+000
-7.2145087E-001	-2.372245577665478E+000
-7.8147292E-001	-4.091247045076809E+000
-7.3139286E-001	-2.390684797213627E+000
-7.9144925E-001	-4.127243628868698E+000
-7.4150658E-001	-2.414633540006786E+000
-8.0144089E-001	-4.171821117401123E+000
-7.5142181E-001	-2.443930625915527E+000
-8.1148207E-001	-4.222892651191124E+000
-7.6151651E-001	-2.478854738749000E+000
-8.2149661E-001	-4.283969457332908E+000
-7.7152336E-001	-2.521521971775933E+000
-8.3137739E-001	-4.355243132664604E+000
-7.8137749E-001	-2.570889087823730E+000
-8.4149504E-001	-4.437139584467964E+000
-7.9141873E-001	-2.627293935188888E+000
-8.5146374E-001	-4.530393105286818E+000
-8.0136448E-001	-2.692572951316848E+000
-8.6141330E-001	-4.637707728606005E+000
-8.1143248E-001	-2.765374715511619E+000
-8.7147355E-001	-4.760493406882659E+000
-8.2151949E-001	-2.846727389555712E+000
-8.8141179E-001	-4.897972216972946E+000
-8.3147287E-001	-2.932723072858959E+000
-8.9149499E-001	-5.047336486669685E+000
-8.4136903E-001	-3.024992484312792E+000
-9.0150946E-001	-5.215096363654503E+000
-8.5149425E-001	-3.121831178665161E+000
-9.1140562E-001	-5.403219919938323E+000
-8.6144000E-001	-3.226192419345562E+000
-9.2139721E-001	-5.598425425015964E+000
-8.7148887E-001	-3.334667590948257E+000
-9.3140411E-001	-5.810424768007717E+000
-8.8149571E-001	-3.449401983847991E+000
-9.4141471E-001	-6.023290542455818E+000
-8.9136136E-001	-3.564400810461777E+000
-9.5131087E-001	-6.229280233383207E+000
-9.0142548E-001	-3.682396934582641E+000
-9.6142083E-001	-6.423677939635057E+000
-9.1144001E-001	-3.802214549137993E+000
-9.7137040E-001	-6.594670277375441E+000
-9.2140865E-001	-3.917154385493355E+000
-9.8136967E-001	-6.738289668009827E+000
-9.3142700E-001	-4.028392204871544E+000
-9.9139178E-001	-6.842107497728790E+000
-9.4139951E-001	-4.130432000527023E+000
-1.0014292E+000	-6.904301533332237E+000
-9.5135283E-001	-4.217706130101128E+000
-1.0114933E+000	-6.929983835953948E+000
-9.6143609E-001	-4.289155996762791E+000
-1.0214850E+000	-6.907019285055313E+000
-9.7137809E-001	-4.344370750280525E+000
-1.0314574E+000	-6.854126270000762E+000
-9.8143452E-001	-4.389079992587750E+000
-1.0414604E+000	-6.779311803671035E+000
-9.9137264E-001	-4.404331115575935E+000
-1.0515131E+000	-6.678623181122999E+000
-1.0013872E+000	-4.409135323304396E+000
-1.0614207E+000	-6.572601831876316E+000
-1.0114741E+000	-4.395941624274620E+000
-1.0714314E+000	-6.462040094228897E+000
-1.0214581E+000	-4.370464691748985E+000
-1.0814803E+000	-6.351346419407768E+000
-1.0314765E+000	-4.333968070837166E+000
-1.0914795E+000	-6.239462393980761E+000
-1.0415177E+000	-4.291389355292687E+000
-1.1014596E+000	-6.135762508098907E+000
-1.0514787E+000	-4.241096478242140E+000
-1.1115276E+000	-6.035823345184326E+000
-1.0613978E+000	-4.189672525112449E+000
-1.1215229E+000	-5.944905867943405E+000
-1.0714962E+000	-4.136646857628463E+000
-1.1314383E+000	-5.864904623765227E+000
-1.0814688E+000	-4.087221512427696E+000
-1.1414603E+000	-5.792426054294292E+000
-1.0914794E+000	-4.037487103388862E+000
-1.1514214E+000	-5.727484904802779E+000
-1.1014863E+000	-3.992086749810440E+000
-1.1613557E+000	-5.672549577859726E+000
-1.1113901E+000	-3.949331540327806E+000
-1.1714237E+000	-5.624519659922669E+000
-1.1214008E+000	-3.907178401947021E+000
-1.1813618E+000	-5.581455909288849E+000
-1.1314573E+000	-3.869124513406028E+000
-1.1914030E+000	-5.546605073488674E+000
-1.1414717E+000	-3.829249006051285E+000
-1.2013335E+000	-5.513855218887358E+000
-1.1515206E+000	-3.797924426885757E+000
-1.2114472E+000	-5.485189841343804E+000
-1.1613748E+000	-3.762647427045383E+000
-1.2214694E+000	-5.460388935529295E+000
-1.1714237E+000	-3.732939307506271E+000