Ewe/V	<I>/mA	
1.2785814E+000	4.261046981811523E+001
1.3285354E+000	5.138478698730455E+001
1.2685478E+000	4.091840744018555E+001
1.3185973E+000	4.956237869262696E+001
1.2586173E+000	3.925323715209959E+001
1.3085179E+000	4.781049804687501E+001
1.2485684E+000	3.761870803833006E+001
1.2986027E+000	4.605884094238280E+001
1.2385119E+000	3.604957656860353E+001
1.2885576E+000	4.435700302124025E+001
1.2285967E+000	3.447494583129884E+001
1.2785738E+000	4.267693634033202E+001
1.2185707E+000	3.293966140747068E+001
1.2685401E+000	4.100764541625978E+001
1.2086021E+000	3.144838180541993E+001
1.2585485E+000	3.940359344482420E+001
1.1985837E+000	2.996382713317871E+001
1.2485912E+000	3.780382995605470E+001
1.1885692E+000	2.854253311157220E+001
1.2385348E+000	3.623347320556638E+001
1.1786578E+000	2.713774147033692E+001
1.2285737E+000	3.472065353393555E+001
1.1685784E+000	2.576809310913086E+001
1.2186241E+000	3.320423889160156E+001
1.1586136E+000	2.444741821289063E+001
1.2085447E+000	3.173824996948241E+001
1.1485952E+000	2.313744163513184E+001
1.1985569E+000	3.031840629577630E+001
1.1386074E+000	2.189431419372559E+001
1.1886036E+000	2.891537094116211E+001
1.1286120E+000	2.068029785156250E+001
1.1785662E+000	2.756933097839351E+001
1.1185746E+000	1.947987937927246E+001
1.1686089E+000	2.623742790222161E+001
1.1085984E+000	1.835112419128419E+001
1.1586136E+000	2.493730354309082E+001
1.0985876E+000	1.723482513427734E+001
1.1486067E+000	2.371136779785155E+001
1.0886419E+000	1.616887207031249E+001
1.1385578E+000	2.248260421752929E+001
1.0785166E+000	1.513157176971436E+001
1.1286311E+000	2.132283210754395E+001
1.0684601E+000	1.413071441650391E+001
1.1186204E+000	2.020362777709960E+001
1.0584991E+000	1.318509445190426E+001
1.1086212E+000	1.910474815368653E+001
1.0485190E+000	1.227087497711182E+001
1.0986105E+000	1.807852478027343E+001
1.0384930E+000	1.138225135803222E+001
1.0885005E+000	1.706704673767089E+001
1.0285357E+000	1.056001968383789E+001
1.0785282E+000	1.610889778137206E+001
1.0185900E+000	9.747260856628415E+000
1.0685365E+000	1.521385688781739E+001
1.0085449E+000	8.977288246154785E+000
1.0585372E+000	1.433187904357911E+001
9.9855715E-001	8.258045959472653E+000
1.0485305E+000	1.351591262817379E+001
9.8850065E-001	7.542776870727536E+000
1.0385236E+000	1.274341831207275E+001
9.7852433E-001	6.887405776977538E+000
1.0285358E+000	1.199315643310547E+001
9.6848691E-001	6.257248020172121E+000
1.0185328E+000	1.131203842163086E+001
9.5854497E-001	5.650009441375730E+000
1.0086023E+000	1.065261821746826E+001
9.4858009E-001	5.096328544616696E+000
9.9856102E-001	1.003773956298828E+001
9.3856567E-001	4.545398616790770E+000
9.8857319E-001	9.470688629150388E+000
9.2848623E-001	4.042830324172968E+000
9.7854722E-001	8.919376564025882E+000
9.1848701E-001	3.568378114700309E+000
9.6850222E-001	8.425060272216797E+000
9.0850687E-001	3.099808359146117E+000
9.5849538E-001	7.958934974670399E+000
8.9854580E-001	2.678454828262328E+000
9.4859153E-001	7.509848213195795E+000
8.8855040E-001	2.263748168945313E+000
9.3854660E-001	7.113019180297840E+000
8.7854356E-001	1.872114849090575E+000
9.2858928E-001	6.724900531768796E+000
8.6843741E-001	1.523495411872863E+000
9.1855574E-001	6.368564605712891E+000
8.5852599E-001	1.166930234432218E+000
9.0858322E-001	6.049206542968747E+000
8.4854966E-001	8.483365416526780E-001
8.9858782E-001	5.724042320251463E+000
8.3853906E-001	5.499892234802246E-001
8.8858473E-001	5.448844718933103E+000
8.2855886E-001	2.467522263526916E-001
8.7858558E-001	5.180370426177980E+000
8.1850237E-001	-1.140800155699254E-002
8.6845648E-001	4.920452690124513E+000
8.0854893E-001	-2.738467052578928E-001
8.5857183E-001	4.707751560211179E+000
7.9849631E-001	-5.182546913623809E-001
8.4860313E-001	4.480609798431395E+000
7.8851616E-001	-7.327132940292360E-001
8.3863062E-001	4.289148426055910E+000
7.7852839E-001	-9.603893756866455E-001
8.2860088E-001	4.117703819274901E+000
7.6852918E-001	-1.147419977188111E+000
8.1852144E-001	3.932812404632568E+000
7.5856811E-001	-1.332081961631776E+000
8.0852985E-001	3.793150997161860E+000
7.4854600E-001	-1.524995422363281E+000
7.9860324E-001	3.650815200805663E+000
7.3853910E-001	-1.678409385681157E+000
7.8855050E-001	3.515966749191286E+000
7.2857046E-001	-1.855125737190249E+000
7.7862763E-001	3.421840286254884E+000
7.1853685E-001	-2.005712819099429E+000
7.6855206E-001	3.302195739746093E+000
7.0857203E-001	-2.136664891242981E+000
7.5858718E-001	3.218994665145871E+000
6.9859952E-001	-2.287634086608886E+000
7.4860704E-001	3.143433618545533E+000
6.8855828E-001	-2.397804689407348E+000
7.3859257E-001	3.052515888214110E+000
6.7865449E-001	-2.516838121414185E+000
7.2859335E-001	3.000562953948975E+000
6.6852927E-001	-2.648171901702881E+000
7.1856743E-001	2.929815244674682E+000
6.5847284E-001	-2.735116720199585E+000
7.0855290E-001	2.866402053833006E+000
6.4850408E-001	-2.852774906158448E+000
6.9859189E-001	2.826444292068480E+000
6.3845909E-001	-2.946901321411133E+000
6.8857735E-001	2.759592962265014E+000
6.2853616E-001	-3.036749219894411E+000
6.7859721E-001	2.724295663833619E+000
6.1849111E-001	-3.146308898925781E+000
6.6847199E-001	2.679218959808349E+000
6.0849190E-001	-3.215833950042725E+000
6.5844226E-001	2.631009626388551E+000
5.9849268E-001	-3.312023496627809E+000
6.4850408E-001	2.624056863784791E+000
5.8849347E-001	-3.405767822265624E+000
6.3849342E-001	2.586314725875855E+000
5.7850569E-001	-3.479495429992674E+000
6.2852097E-001	2.569812107086182E+000
5.6860572E-001	-3.582025909423834E+000
6.1848348E-001	2.567061567306517E+000
5.5852252E-001	-3.653690290451053E+000
6.0851097E-001	2.529701280593873E+000
5.4853857E-001	-3.726806259155282E+000
5.9844685E-001	2.519081401824952E+000
5.3858131E-001	-3.816348791122437E+000
5.8855456E-001	2.468580150604247E+000
5.2851337E-001	-3.866009664535522E+000
5.7849807E-001	2.406160354614258E+000
5.1855612E-001	-3.958990240097044E+000
5.6851029E-001	2.388893604278564E+000
5.0854546E-001	-4.039364242553710E+000
5.5849195E-001	2.331898260116578E+000
4.9857679E-001	-4.109042358398440E+000
5.4847366E-001	2.300802946090698E+000
4.8860046E-001	-4.215698719024658E+000
5.3845537E-001	2.268714189529419E+000
4.7866616E-001	-4.281786060333253E+000
5.2853632E-001	2.205606842041014E+000
4.6854091E-001	-4.368425083160403E+000
5.1852942E-001	2.159995079040527E+000
4.5852262E-001	-4.444368267059325E+000
5.0858748E-001	2.043635916709896E+000
4.4859210E-001	-4.472101879119876E+000
4.9849659E-001	1.912378406524658E+000
4.3859288E-001	-4.568062019348147E+000
4.8856229E-001	1.793727087974549E+000
4.2857838E-001	-4.690456771850585E+000
4.7852871E-001	1.629464173316956E+000
4.1857535E-001	-4.840738773345947E+000
4.6854475E-001	1.510277986526489E+000
4.0858755E-001	-5.020816707611083E+000
4.5846915E-001	1.376499128341674E+000
3.9856923E-001	-5.162846279144290E+000
4.4850430E-001	1.228815317153931E+000
3.8858530E-001	-5.342619037628175E+000
4.3849742E-001	1.114060437679289E+000
3.7858990E-001	-5.525676918029788E+000
4.2856312E-001	9.595769405364987E-001
3.6854866E-001	-5.691467761993408E+000
4.1850281E-001	8.143379926681504E-001
3.5854945E-001	-5.911732673645020E+000
4.0855321E-001	6.802535414695736E-001
3.4856930E-001	-6.100596904754639E+000
3.9857307E-001	5.065168559551232E-001
3.3856246E-001	-6.315208530426027E+000
3.8857767E-001	3.701404333114624E-001
3.2859376E-001	-6.549454784393312E+000
3.7860897E-001	2.065651044249535E-001
3.1858307E-001	-6.753140640258792E+000
3.6854866E-001	2.908472269773477E-002
3.0859149E-001	-7.005647659301758E+000
3.5858381E-001	-1.113409862853589E-001
2.9856169E-001	-7.241651248931902E+000
3.4864566E-001	-2.862237125635148E-001
2.8859305E-001	-7.473300457000732E+000
3.3866933E-001	-4.443745434284212E-001
2.7852508E-001	-7.747963142395037E+000
3.2858232E-001	-5.901483774185179E-001
2.6855642E-001	-7.977702045440672E+000
3.1860599E-001	-7.630446434020994E-001
2.5858772E-001	-8.234028625488278E+000
3.0864877E-001	-9.057623624801643E-001
2.4847777E-001	-8.509073638916021E+000
2.9867625E-001	-1.074991381168367E+000
2.3851673E-001	-8.728651046752930E+000
2.8864649E-001	-1.259577155113220E+000
2.2849460E-001	-8.989027023315430E+000
2.7857473E-001	-1.434765458106995E+000
2.1857937E-001	-9.205243110656738E+000
2.6861367E-001	-1.659003472328187E+000
2.0849614E-001	-9.409233856201169E+000
2.5858009E-001	-1.840609502792361E+000
1.9848546E-001	-9.628583335876471E+000
2.4847396E-001	-2.028786015510562E+000
1.8845570E-001	-9.783753395080566E+000
2.3850527E-001	-2.206342935562134E+000
1.7847556E-001	-9.946794319152829E+000
2.2852895E-001	-2.325834512710571E+000
1.6846488E-001	-1.009065799713134E+001
2.1850681E-001	-2.463280773162843E+000
1.5850383E-001	-1.018096523284912E+001
2.0852669E-001	-2.562984514236451E+000
1.4848551E-001	-1.028945465087891E+001
1.9853127E-001	-2.631287193298341E+000
1.3845956E-001	-1.033659496307374E+001
1.8852824E-001	-2.707535839080812E+000
1.2857488E-001	-1.036142425537109E+001
1.7847937E-001	-2.728928279876708E+000
1.1846875E-001	-1.039320831298828E+001
1.6850688E-001	-2.745125293731689E+000
1.0848479E-001	-1.035806369781494E+001
1.5854202E-001	-2.750396919250488E+000
9.8493204E-002	-1.033162784576416E+001
1.4848934E-001	-2.707230138778687E+000
8.8562697E-002	-1.027623748779297E+001
1.3853210E-001	-2.682552528381347E+000
7.8536749E-002	-1.017729778289795E+001
1.2847561E-001	-2.612416267395020E+000
6.8514615E-002	-1.010876598358155E+001
1.1853366E-001	-2.528221845626831E+000
5.8549751E-002	-9.981327819824216E+000
1.0848479E-001	-2.459231472015382E+000
4.8581067E-002	-9.856183052062988E+000
9.8527566E-002	-2.342413854598998E+000
3.8532209E-002	-9.741503906250003E+000
8.8600881E-002	-2.238660764694213E+000
2.8536800E-002	-9.578616523742681E+000
7.8552023E-002	-2.134067153930665E+000
1.8545210E-002	-9.452020072937017E+000
6.8602428E-002	-1.995398688316349E+000
8.4963506E-003	-9.307009506225583E+000
5.8557384E-002	-1.897681379318238E+000
-1.4723320E-003	-9.147636413574219E+000
4.8569612E-002	-1.769708943367007E+000
-1.1444830E-002	-9.030283737182614E+000
3.8585659E-002	-1.645862460136414E+000
-2.1463145E-002	-8.868848037719729E+000
2.8586432E-002	-1.552194333076477E+000
-3.1470004E-002	-8.740799331665045E+000
1.8533755E-002	-1.423152494430543E+000
-4.1446321E-002	-8.626732063293460E+000
8.6834300E-003	-1.341708636283874E+000
-5.1510453E-002	-8.487604522705084E+000
-1.3081599E-003	-1.265383648872376E+000
-6.1467685E-002	-8.397756576538086E+000
-1.1357018E-002	-1.178209710121156E+000
-7.1394369E-002	-8.292934608459476E+000
-2.1390604E-002	-1.138022518157959E+000
-8.1469946E-002	-8.192389869689947E+000
-3.1275291E-002	-1.072699391841891E+000
-9.1427170E-002	-8.128670883178714E+000
-4.1312695E-002	-1.016162407398224E+000
-1.0134240E-001	-8.033703994750979E+000
-5.1281378E-002	-9.916375517845175E-001
-1.1145617E-001	-7.977473163604735E+000
-6.1318781E-002	-9.290648102760315E-001
-1.2135994E-001	-7.917268466949480E+000
-7.1268372E-002	-9.021715164184592E-001
-1.3132098E-001	-7.845833206176756E+000
-8.1244685E-002	-8.745142221450806E-001
-1.4147294E-001	-7.827038669586187E+000
-9.1251545E-002	-8.371539592742918E-001
-1.5140344E-001	-7.782343864440918E+000
-1.0131568E-001	-8.300486445426944E-001
-1.6141029E-001	-7.749109268188477E+000
-1.1133781E-001	-8.018565058708198E-001
-1.7148587E-001	-7.766146850585940E+000
-1.2131413E-001	-7.884098768234251E-001
-1.8150038E-001	-7.735356616973888E+000
-1.3133244E-001	-7.896323323249819E-001
-1.9148052E-001	-7.752700233459478E+000
-1.4132403E-001	-7.694623589515688E-001
-2.0143391E-001	-7.767751026153576E+000
-1.5130799E-001	-7.846662282943724E-001
-2.1147132E-001	-7.783642482757571E+000
-1.6128813E-001	-7.920771479606632E-001
-2.2148964E-001	-7.852938938140881E+000
-1.7139043E-001	-8.063641786575317E-001
-2.3148504E-001	-7.900460147857665E+000
-1.8139729E-001	-8.555667042732260E-001
-2.4149573E-001	-7.988933181762697E+000
-1.9137743E-001	-8.784870862960830E-001
-2.5146440E-001	-8.129053211212160E+000
-2.0137665E-001	-9.484707593917854E-001
-2.6154000E-001	-8.264512825012204E+000
-2.1137588E-001	-1.047410571575167E+000
-2.7152011E-001	-8.492035865783691E+000
-2.2133693E-001	-1.152920866012574E+000
-2.8147736E-001	-8.753176116943365E+000
-2.3143542E-001	-1.350723910331727E+000
-2.9143840E-001	-9.071235084533697E+000
-2.4150717E-001	-1.610717821121220E+000
-3.0147961E-001	-9.495186805725098E+000
-2.5147206E-001	-1.972325491905213E+000
-3.1147501E-001	-9.948780822753903E+000
-2.6154763E-001	-2.417363405227661E+000
-3.2145134E-001	-1.051575584411621E+001
-2.7148959E-001	-2.896705675125123E+000
-3.3146203E-001	-1.115378303527832E+001
-2.8140864E-001	-3.482016468048094E+000
-3.4146124E-001	-1.183627719879151E+001
-2.9152241E-001	-4.116530036926271E+000
-3.5144138E-001	-1.261908473968506E+001
-3.0151016E-001	-4.792529106140137E+000
-3.6142531E-001	-1.341259059906005E+001
-3.1149793E-001	-5.554480171203615E+000
-3.7150091E-001	-1.425094184875488E+001
-3.2144371E-001	-6.316812896728514E+000
-3.8145432E-001	-1.513536453247070E+001
-3.3153072E-001	-7.121930217742921E+000
-3.9151463E-001	-1.598700942993165E+001
-3.4144214E-001	-7.946453952789312E+000
-4.0138787E-001	-1.686623725891113E+001
-3.5144901E-001	-8.737896156311038E+000
-4.1150546E-001	-1.771880035400392E+001
-3.6147115E-001	-9.552181243896484E+000
-4.2146650E-001	-1.852124290466310E+001
-3.7141311E-001	-1.032689132690430E+001
-4.3143517E-001	-1.933216819763183E+001
-3.8145053E-001	-1.105293407440186E+001
-4.4148788E-001	-2.005775222778320E+001
-3.9151081E-001	-1.177775287628174E+001
-4.5141834E-001	-2.074406585693359E+001
-4.0149859E-001	-1.240867557525635E+001
-4.6140996E-001	-2.139668426513671E+001
-4.1138709E-001	-1.301797637939453E+001
-4.7143590E-001	-2.194899177551270E+001
-4.2137104E-001	-1.356844902038574E+001
-4.8147327E-001	-2.248105087280274E+001
-4.3149626E-001	-1.403480300903320E+001
-4.9141526E-001	-2.293059616088868E+001
-4.4148406E-001	-1.448266754150393E+001
-5.0141829E-001	-2.330404510498047E+001
-4.5145270E-001	-1.484068450927737E+001
-5.1134115E-001	-2.366534690856935E+001
-4.6145958E-001	-1.514155235290528E+001
-5.2141672E-001	-2.392556991577149E+001
-4.7142443E-001	-1.541965332031253E+001
-5.3145415E-001	-2.416738128662109E+001
-4.8136640E-001	-1.560500316619874E+001
-5.4145342E-001	-2.437144851684570E+001
-4.9132743E-001	-1.578974094390870E+001
-5.5142969E-001	-2.450637321472169E+001
-5.0142974E-001	-1.593528633117677E+001
-5.6143278E-001	-2.465657958984374E+001
-5.1139843E-001	-1.602200202941896E+001
-5.7140142E-001	-2.475513687133790E+001
-5.2143967E-001	-1.613156280517578E+001
-5.8141971E-001	-2.482978096008301E+001
-5.3146183E-001	-1.618305587768555E+001
-5.9155262E-001	-2.493842468261718E+001
-5.4139990E-001	-1.622943382263185E+001
-6.0148692E-001	-2.497318496704102E+001
-5.5141062E-001	-1.629070510864258E+001
-6.1152810E-001	-2.503927268981934E+001
-5.6138694E-001	-1.630033340454102E+001
-6.2151974E-001	-2.510131263732910E+001
-5.7141668E-001	-1.636129989624024E+001
-6.3150370E-001	-2.513538589477540E+001
-5.8132428E-001	-1.639445915222169E+001
-6.4152580E-001	-2.521652374267578E+001
-5.9153354E-001	-1.643242988586425E+001
-6.5153652E-001	-2.526045494079591E+001
-6.0148692E-001	-1.650577621459962E+001
-6.6149372E-001	-2.533204421997070E+001
-6.1145180E-001	-1.653755912780761E+001
-6.7151588E-001	-2.543151817321777E+001
-6.2143952E-001	-1.660891799926759E+001
-6.8157613E-001	-2.549928550720216E+001
-6.3143492E-001	-1.669425773620605E+001
-6.9153720E-001	-2.561327819824220E+001
-6.4150292E-001	-1.675148277282716E+001
-7.0149064E-001	-2.572344779968262E+001
-6.5151739E-001	-1.686776542663574E+001
-7.1147072E-001	-2.582330436706542E+001
-6.6142499E-001	-1.695982933044434E+001
-7.2147763E-001	-2.597671852111819E+001
-6.7155021E-001	-1.705563583374024E+001
-7.3147684E-001	-2.609116821289064E+001
-6.8155324E-001	-1.719590988159180E+001
-7.4140733E-001	-2.623151817321778E+001
-6.9143409E-001	-1.728782081604004E+001
-7.5137985E-001	-2.639746055603030E+001
-7.0147151E-001	-1.742824630737306E+001
-7.6148975E-001	-2.651221542358400E+001
-7.1148980E-001	-1.756515655517578E+001
-7.7148521E-001	-2.669122467041015E+001
-7.2150815E-001	-1.767425765991212E+001
-7.8148055E-001	-2.683860282897956E+001
-7.3139286E-001	-1.783401336669922E+001
-7.9143780E-001	-2.697635383605962E+001
-7.4152946E-001	-1.795510940551759E+001
-8.0144852E-001	-2.716002159118659E+001
-7.5147146E-001	-1.809301338195800E+001
-8.1157374E-001	-2.729296188354493E+001
-7.6139432E-001	-1.824940643310546E+001
-8.2150805E-001	-2.745401420593262E+001
-7.7141643E-001	-1.835476531982422E+001
-8.3148056E-001	-2.761949996948243E+001
-7.8143859E-001	-1.850848541259765E+001
-8.4148741E-001	-2.774082679748540E+001
-7.9142636E-001	-1.863897857666015E+001
-8.5146368E-001	-2.791204147338868E+001
-8.0142939E-001	-1.874540519714355E+001
-8.6137128E-001	-2.804803619384765E+001
-8.1150502E-001	-1.889774971008302E+001
-8.7139344E-001	-2.817554931640632E+001
-8.2145458E-001	-1.899829330444337E+001
-8.8135827E-001	-2.833156166076662E+001
-8.3146906E-001	-1.911778488159180E+001
-8.9151412E-001	-2.844402389526368E+001
-8.4149885E-001	-1.925607147216797E+001
-9.0148270E-001	-2.859476432800292E+001
-8.5148656E-001	-1.934966468811035E+001
-9.1144377E-001	-2.873702392578127E+001
-8.6144000E-001	-1.948986091613770E+001
-9.2147738E-001	-2.885437545776369E+001
-8.7145835E-001	-1.961156654357910E+001
-9.3132007E-001	-2.901359786987305E+001
-8.8148046E-001	-1.972005691528321E+001
-9.4142616E-001	-2.913102416992194E+001
-8.9145678E-001	-1.987538223266603E+001
-9.5142156E-001	-2.926816482543944E+001
-9.0143311E-001	-1.998165473937988E+001
-9.6142465E-001	-2.944297180175784E+001
-9.1133308E-001	-2.013392410278320E+001
-9.7141623E-001	-2.956536788940434E+001
-9.2152315E-001	-2.028794937133790E+001
-9.8143077E-001	-2.975384864807128E+001
-9.3147278E-001	-2.042562294006348E+001
-9.9149483E-001	-2.993705940246582E+001
-9.4147199E-001	-2.063335990905762E+001
-1.0014330E+000	-3.012447242736823E+001
-9.5140249E-001	-2.081870994567871E+001
-1.0114895E+000	-3.039997520446778E+001
-9.6140558E-001	-2.103744697570801E+001
-1.0215117E+000	-3.063735466003425E+001
-9.7143918E-001	-2.131058158874512E+001
-1.0315299E+000	-3.092829017639167E+001
-9.8140019E-001	-2.156133079528809E+001
-1.0415330E+000	-3.125582275390627E+001
-9.9136889E-001	-2.187640838623048E+001
-1.0515054E+000	-3.155012092590331E+001
-1.0015093E+000	-2.219576721191407E+001
-1.0615810E+000	-3.189835853576665E+001
-1.0115200E+000	-2.248234825134278E+001
-1.0715231E+000	-3.221809844970704E+001
-1.0214926E+000	-2.282210578918458E+001
-1.0814307E+000	-3.253310089111329E+001
-1.0315070E+000	-2.311120758056640E+001
-1.0915291E+000	-3.287415695190430E+001
-1.0414718E+000	-2.341138916015626E+001
-1.1014940E+000	-3.314392852783203E+001
-1.0514673E+000	-2.371202926635743E+001
-1.1115199E+000	-3.342203292846682E+001
-1.0614893E+000	-2.392985038757325E+001
-1.1215153E+000	-3.365711975097656E+001
-1.0714467E+000	-2.415928115844727E+001
-1.1314955E+000	-3.380938796997071E+001
-1.0814536E+000	-2.432744178771972E+001
-1.1414908E+000	-3.397395477294924E+001
-1.0915940E+000	-2.442760467529297E+001
-1.1514443E+000	-3.403675918579103E+001
-1.1014978E+000	-2.452203636169435E+001
-1.1614511E+000	-3.406357192993164E+001
-1.1114742E+000	-2.451645812988281E+001
-1.1714963E+000	-3.407549057006838E+001
-1.1215001E+000	-2.449445533752441E+001
-1.1815069E+000	-3.399840240478517E+001
-1.1314229E+000	-2.444082069396973E+001
-1.1914755E+000	-3.393254394531249E+001
-1.1414603E+000	-2.432469177246094E+001
-1.2015358E+000	-3.384598159790039E+001
-1.1514634E+000	-2.424523315429687E+001
-1.2114816E+000	-3.370593795776369E+001
-1.1613977E+000	-2.411374855041504E+001
-1.2214121E+000	-3.361632232666017E+001
-1.1714771E+000	-2.397584228515626E+001