Ewe/V	<I>/mA	
1.2785966E+000	4.275066375732422E+001
1.3285049E+000	5.151208782196045E+001
1.2685707E+000	4.105608177185059E+001
1.3185476E+000	4.970060920715332E+001
1.2585409E+000	3.939530849456787E+001
1.3085753E+000	4.795006561279297E+001
1.2485608E+000	3.777359390258789E+001
1.2986027E+000	4.620181083679199E+001
1.2385577E+000	3.618521022796631E+001
1.2885309E+000	4.451983451843262E+001
1.2285814E+000	3.462165546417236E+001
1.2785585E+000	4.283079242706299E+001
1.2185860E+000	3.310948276519775E+001
1.2685783E+000	4.120296382904053E+001
1.2085714E+000	3.159740400314331E+001
1.2585981E+000	3.957647514343262E+001
1.1986257E+000	3.014730548858643E+001
1.2485646E+000	3.800346565246582E+001
1.1886493E+000	2.869988107681274E+001
1.2385806E+000	3.644516468048096E+001
1.1786005E+000	2.732303333282471E+001
1.2285622E+000	3.492143630981445E+001
1.1685631E+000	2.593768644332886E+001
1.2185860E+000	3.343714714050293E+001
1.1585982E+000	2.461813831329346E+001
1.2085905E+000	3.196202850341797E+001
1.1486219E+000	2.330890560150146E+001
1.1985378E+000	3.056245279312134E+001
1.1385808E+000	2.205735588073730E+001
1.1886075E+000	2.915179586410522E+001
1.1285700E+000	2.083149576187134E+001
1.1786234E+000	2.781066608428955E+001
1.1185937E+000	1.963466835021973E+001
1.1686203E+000	2.647240066528320E+001
1.1085831E+000	1.848912572860718E+001
1.1585907E+000	2.520853042602539E+001
1.0985724E+000	1.736163282394409E+001
1.1486028E+000	2.394991302490234E+001
1.0886419E+000	1.629545116424561E+001
1.1385961E+000	2.276320838928223E+001
1.0785320E+000	1.523337721824646E+001
1.1286120E+000	2.160057020187378E+001
1.0685136E+000	1.424951839447021E+001
1.1186090E+000	2.048110008239746E+001
1.0584762E+000	1.326747488975525E+001
1.1085868E+000	1.940813875198364E+001
1.0484960E+000	1.235619688034058E+001
1.0985724E+000	1.836497354507446E+001
1.0385159E+000	1.145361018180847E+001
1.0884587E+000	1.738044548034668E+001
1.0285130E+000	1.061529612541199E+001
1.0785471E+000	1.641893482208252E+001
1.0184792E+000	9.796464443206787E+000
1.0685441E+000	1.553353929519653E+001
1.0084457E+000	9.017170906066895E+000
1.0585525E+000	1.465540051460266E+001
9.9852282E-001	8.274740219116211E+000
1.0485151E+000	1.385347318649292E+001
9.8852354E-001	7.549787044525146E+000
1.0385312E+000	1.306501102447510E+001
9.7852051E-001	6.885668158531189E+000
1.0285702E+000	1.233728718757629E+001
9.6849841E-001	6.224700570106506E+000
1.0185059E+000	1.163754630088806E+001
9.5853353E-001	5.624854445457459E+000
1.0085030E+000	1.098670244216919E+001
9.4851136E-001	5.025199294090271E+000
9.9852663E-001	1.037482285499573E+001
9.3851221E-001	4.483513712882996E+000
9.8854262E-001	9.791880369186401E+000
9.2847097E-001	3.944502055644989E+000
9.7861218E-001	9.260890960693359E+000
9.1854042E-001	3.461549818515778E+000
9.6852511E-001	8.738114356994629E+000
9.0848392E-001	2.974586665630341E+000
9.5855647E-001	8.277032375335693E+000
8.9850003E-001	2.534419238567352E+000
9.4856864E-001	7.819866061210632E+000
8.8849318E-001	2.110964685678482E+000
9.3856174E-001	7.418758511543274E+000
8.7849391E-001	1.707087993621826E+000
9.2854726E-001	7.017555713653564E+000
8.6852908E-001	1.336827784776688E+000
9.1854811E-001	6.673176884651184E+000
8.5852981E-001	9.693372249603271E-001
9.0854883E-001	6.319725275039673E+000
8.4853441E-001	6.468279659748077E-001
8.9855343E-001	6.012973427772522E+000
8.3858865E-001	3.132405057549477E-001
8.8855422E-001	5.713766336441040E+000
8.2852072E-001	2.912292722612619E-002
8.7857032E-001	5.436907291412354E+000
8.1851768E-001	-2.719939518719912E-001
8.6859012E-001	5.192231893539429E+000
8.0853748E-001	-5.234499499201775E-001
8.5864055E-001	4.947556257247925E+000
7.9857647E-001	-7.925737351179123E-001
8.4859931E-001	4.739171504974365E+000
7.8853148E-001	-1.016429737210274E+000
8.3857340E-001	4.522096276283264E+000
7.7853984E-001	-1.244201302528381E+000
8.2857412E-001	4.351912260055542E+000
7.6853681E-001	-1.449911981821060E+000
8.1854820E-001	4.155656218528748E+000
7.5849557E-001	-1.635280758142471E+000
8.0859858E-001	4.018515884876251E+000
7.4850786E-001	-1.827334761619568E+000
7.9858029E-001	3.854348480701447E+000
7.3859638E-001	-1.990833520889282E+000
7.8857344E-001	3.734111726284027E+000
7.2853225E-001	-2.170472323894501E+000
7.7857041E-001	3.602796852588654E+000
7.1856737E-001	-2.312387883663177E+000
7.6859790E-001	3.500228166580200E+000
7.0855671E-001	-2.479802370071411E+000
7.5857192E-001	3.398900806903839E+000
6.9856513E-001	-2.599179446697235E+000
7.4857271E-001	3.309988558292389E+000
6.8860406E-001	-2.745965540409088E+000
7.3858112E-001	3.235115349292755E+000
6.7858577E-001	-2.850062429904938E+000
7.2862005E-001	3.150500714778900E+000
6.6850638E-001	-2.988348841667175E+000
7.1859795E-001	3.100648880004883E+000
6.5841550E-001	-3.086715638637543E+000
7.0854908E-001	3.018421947956085E+000
6.4848882E-001	-3.201604127883911E+000
6.9856894E-001	2.981844723224640E+000
6.3846284E-001	-3.302263021469116E+000
6.8856210E-001	2.907257854938507E+000
6.2849039E-001	-3.397000670433044E+000
6.7854375E-001	2.882331907749176E+000
6.1851788E-001	-3.504249095916748E+000
6.6844147E-001	2.815194189548492E+000
6.0852623E-001	-3.586094021797180E+000
6.5843081E-001	2.799054503440857E+000
5.9855378E-001	-3.696398377418518E+000
6.4842772E-001	2.759803235530853E+000
5.8852398E-001	-3.768597781658173E+000
6.3845521E-001	2.746815025806427E+000
5.7850188E-001	-3.880430281162262E+000
6.2848276E-001	2.727332651615143E+000
5.6852937E-001	-3.945753514766693E+000
6.1840713E-001	2.702215671539307E+000
5.5854160E-001	-4.045075297355652E+000
6.0849190E-001	2.680536746978760E+000
5.4859585E-001	-4.097601354122162E+000
5.9854233E-001	2.617601156234741E+000
5.3850114E-001	-4.190333247184753E+000
5.8847052E-001	2.587040603160858E+000
5.2857065E-001	-4.256611466407776E+000
5.7845986E-001	2.534801304340363E+000
5.1852560E-001	-4.347051739692688E+000
5.6845683E-001	2.514554798603058E+000
5.0854164E-001	-4.428705692291260E+000
5.5846906E-001	2.448372244834900E+000
4.9854624E-001	-4.511696338653564E+000
5.4847366E-001	2.425069808959961E+000
4.8855463E-001	-4.601754665374756E+000
5.3848970E-001	2.357741117477417E+000
4.7856688E-001	-4.672235012054443E+000
5.2855158E-001	2.309512674808502E+000
4.6855623E-001	-4.756849408149719E+000
5.1849884E-001	2.198826253414154E+000
4.5856461E-001	-4.783303380012512E+000
5.0853783E-001	2.081072717905045E+000
4.4853866E-001	-4.870401024818420E+000
4.9854243E-001	1.944505184888840E+000
4.3858141E-001	-4.953773975372314E+000
4.8849353E-001	1.791034072637558E+000
4.2855164E-001	-5.139429330825806E+000
4.7850198E-001	1.660196632146835E+000
4.1855246E-001	-5.275328159332275E+000
4.6852946E-001	1.507011830806732E+000
4.0858755E-001	-5.457258939743042E+000
4.5850733E-001	1.392791748046875E+000
3.9854634E-001	-5.612162828445435E+000
4.4855392E-001	1.229483902454376E+000
3.8857383E-001	-5.791801571846008E+000
4.3855089E-001	1.110488817095757E+000
3.7857080E-001	-5.978889226913452E+000
4.2855930E-001	9.418327510356903E-001
3.6857158E-001	-6.166454553604126E+000
4.1856006E-001	8.067933320999146E-001
3.5861817E-001	-6.379232287406921E+000
4.0852645E-001	6.346992403268814E-001
3.4849676E-001	-6.575201869010925E+000
3.9857689E-001	4.864805936813354E-001
3.3853573E-001	-6.819113373756409E+000
3.8861966E-001	3.089429289102554E-001
3.2856321E-001	-7.027784585952759E+000
3.7857842E-001	1.450620023533702E-001
3.1851819E-001	-7.290032148361206E+000
3.6859450E-001	-2.798709562921431E-002
3.0853420E-001	-7.513219714164734E+000
3.5859907E-001	-2.090583294630051E-001
2.9856172E-001	-7.791606903076172E+000
3.4859222E-001	-3.696921989321709E-001
2.8861213E-001	-8.027591705322266E+000
3.3859679E-001	-5.576395541429520E-001
2.7854419E-001	-8.311327457427979E+000
3.2872358E-001	-7.043301612138748E-001
2.6857549E-001	-8.565266370773315E+000
3.1867090E-001	-8.966705501079559E-001
2.5853047E-001	-8.842698812484741E+000
3.0870220E-001	-1.054916918277740E+000
2.4852359E-001	-9.126338958740234E+000
2.9864955E-001	-1.270750761032104E+000
2.3845945E-001	-9.381997346878052E+000
2.8862739E-001	-1.477225422859192E+000
2.2855568E-001	-9.652457952499390E+000
2.7860525E-001	-1.735080033540726E+000
2.1849918E-001	-9.887296676635742E+000
2.6857930E-001	-1.953969955444336E+000
2.0849997E-001	-1.014725184440613E+001
2.5860301E-001	-2.180022537708282E+000
1.9851981E-001	-1.034771037101746E+001
2.4854268E-001	-2.393373250961304E+000
1.8848242E-001	-1.057863330841064E+001
2.3853582E-001	-2.578169167041779E+000
1.7850992E-001	-1.073945832252502E+001
2.2850987E-001	-2.758094251155853E+000
1.6854505E-001	-1.092664146423340E+001
2.1850300E-001	-2.894757211208344E+000
1.5850383E-001	-1.104888367652893E+001
2.0860685E-001	-3.044599413871765E+000
1.4852369E-001	-1.118602395057678E+001
1.9850455E-001	-3.130932927131653E+000
1.3850920E-001	-1.126987457275391E+001
1.8850151E-001	-3.243147373199463E+000
1.2855197E-001	-1.134073686599731E+001
1.7853664E-001	-3.282685041427612E+000
1.1851456E-001	-1.138294839859009E+001
1.6859850E-001	-3.345334231853485E+000
1.0847716E-001	-1.138724613189697E+001
1.5857255E-001	-3.346384763717651E+000
9.8523743E-002	-1.139574599266052E+001
1.4846642E-001	-3.359945893287659E+000
8.8497803E-002	-1.134398365020752E+001
1.3854738E-001	-3.326902389526367E+000
7.8578748E-002	-1.131017637252808E+001
1.2858634E-001	-3.283449172973633E+000
6.8499342E-002	-1.120665216445923E+001
1.1848020E-001	-3.230159342288971E+000
5.8549751E-002	-1.113884639739990E+001
1.0850770E-001	-3.145067095756531E+000
4.8474167E-002	-1.100762701034546E+001
9.8550476E-002	-3.063508689403534E+000
3.8516935E-002	-1.090295743942261E+001
8.8562705E-002	-2.940884470939636E+000
2.8563526E-002	-1.074891281127930E+001
7.8594014E-002	-2.848820924758911E+000
1.8510848E-002	-1.061320447921753E+001
6.8602428E-002	-2.702894210815430E+000
8.5650729E-003	-1.046422243118286E+001
5.8576476E-002	-2.605005025863647E+000
-1.4952397E-003	-1.031075096130371E+001
4.8626881E-002	-2.453348338603973E+000
-1.1433377E-002	-1.016682982444763E+001
3.8555115E-002	-2.345431506633759E+000
-2.1482235E-002	-9.995786428451538E+000
2.8616976E-002	-2.201892256736755E+000
-3.1454735E-002	-9.869437932968140E+000
1.8537574E-002	-2.089104890823364E+000
-4.1457776E-002	-9.700877189636230E+000
8.4925322E-003	-1.960845947265625E+000
-5.1415008E-002	-9.588471889495850E+000
-1.4914217E-003	-1.845670938491821E+000
-6.1482955E-002	-9.432899236679077E+000
-1.1467739E-002	-1.742147147655487E+000
-7.1421094E-002	-9.339212179183960E+000
-2.1444056E-002	-1.628404676914215E+000
-8.1443220E-002	-9.206655502319336E+000
-3.1462371E-002	-1.547419160604477E+000
-9.1469169E-002	-9.125384569168091E+000
-4.1377600E-002	-1.442176342010498E+000
-1.0140730E-001	-9.019090652465820E+000
-5.1357739E-002	-1.391942471265793E+000
-1.1139508E-001	-8.948419332504272E+000
-6.1372232E-002	-1.301884263753891E+000
-1.2135995E-001	-8.877270221710205E+000
-7.1348548E-002	-1.271610260009766E+000
-1.3141263E-001	-8.811851978302002E+000
-8.1317224E-002	-1.207624167203903E+000
-1.4141567E-001	-8.766870260238647E+000
-9.1266818E-002	-1.177923113107681E+000
-1.5141489E-001	-8.698300123214722E+000
-1.0116678E-001	-1.134469866752625E+000
-1.6138738E-001	-8.677576541900635E+000
-1.1128055E-001	-1.108588844537735E+000
-1.7149352E-001	-8.634696006774902E+000
-1.2129504E-001	-1.085190981626511E+000
-1.8158437E-001	-8.643577814102173E+000
-1.3120645E-001	-1.063512101769447E+000
-1.9151869E-001	-8.609579324722290E+000
-1.4127822E-001	-1.063321098685265E+000
-2.0150647E-001	-8.633072376251221E+000
-1.5128127E-001	-1.048040777444839E+000
-2.1152858E-001	-8.634791612625122E+000
-1.6127285E-001	-1.068955674767494E+000
-2.2144763E-001	-8.685121059417725E+000
-1.7143242E-001	-1.068191662430763E+000
-2.3148887E-001	-8.727810382843018E+000
-1.8141256E-001	-1.113077431917191E+000
-2.4152245E-001	-8.806790113449097E+000
-1.9138125E-001	-1.134278863668442E+000
-2.5143766E-001	-8.917476415634155E+000
-2.0141482E-001	-1.216887772083282E+000
-2.6142165E-001	-9.046022176742554E+000
-2.1136060E-001	-1.293862164020538E+000
-2.7143994E-001	-9.246384620666504E+000
-2.2141710E-001	-1.454782634973526E+000
-2.8151172E-001	-9.467757463455200E+000
-2.3144305E-001	-1.648841977119446E+000
-2.9141933E-001	-9.793418169021606E+000
-2.4142319E-001	-1.930380970239639E+000
-3.0152926E-001	-1.013760638237000E+001
-2.5140715E-001	-2.263013482093811E+000
-3.1148645E-001	-1.060843014717102E+001
-2.6150563E-001	-2.661924064159393E+000
-3.2141697E-001	-1.110828566551209E+001
-2.7145523E-001	-3.155858874320984E+000
-3.3151931E-001	-1.173305797576904E+001
-2.8145063E-001	-3.694583952426910E+000
-3.4148416E-001	-1.239297485351563E+001
-2.9149187E-001	-4.346383094787598E+000
-3.5146809E-001	-1.315049409866333E+001
-3.0141088E-001	-5.010597467422485E+000
-3.6147493E-001	-1.394802927970886E+001
-3.1154755E-001	-5.783779382705688E+000
-3.7146273E-001	-1.479770803451538E+001
-3.2145515E-001	-6.550085186958313E+000
-3.8150778E-001	-1.568004727363586E+001
-3.3148494E-001	-7.402055740356445E+000
-3.9151081E-001	-1.656601667404175E+001
-3.4143832E-001	-8.222606420516968E+000
-4.0141839E-001	-1.748474359512329E+001
-3.5141465E-001	-9.099407434463501E+000
-4.1138712E-001	-1.836297750473022E+001
-3.6141771E-001	-9.936193227767944E+000
-4.2137870E-001	-1.927033853530884E+001
-3.7143981E-001	-1.078033280372620E+001
-4.3146190E-001	-2.010129928588867E+001
-3.8148487E-001	-1.159352970123291E+001
-4.4144967E-001	-2.094859027862549E+001
-3.9145738E-001	-1.236527919769287E+001
-4.5148328E-001	-2.170343589782715E+001
-4.0141076E-001	-1.311668634414673E+001
-4.6143284E-001	-2.245255136489868E+001
-4.1144052E-001	-1.379217004776001E+001
-4.7140917E-001	-2.310807466506958E+001
-4.2135960E-001	-1.445323276519775E+001
-4.8145804E-001	-2.373380184173584E+001
-4.3140462E-001	-1.501258659362793E+001
-4.9137709E-001	-2.428255462646484E+001
-4.4148403E-001	-1.556344056129456E+001
-5.0140303E-001	-2.477773141860962E+001
-4.5138782E-001	-1.600045537948608E+001
-5.1139081E-001	-2.521847200393677E+001
-4.6150923E-001	-1.642553424835205E+001
-5.2137858E-001	-2.557736730575562E+001
-4.7138628E-001	-1.675043106079102E+001
-5.3143126E-001	-2.591716194152832E+001
-4.8145804E-001	-1.705259799957275E+001
-5.4147631E-001	-2.615925836563110E+001
-4.9133125E-001	-1.727826881408691E+001
-5.5146027E-001	-2.640412521362305E+001
-5.0144887E-001	-1.747395133972168E+001
-5.6141746E-001	-2.655578184127808E+001
-5.1140606E-001	-1.762866497039795E+001
-5.7144725E-001	-2.672367382049561E+001
-5.2135944E-001	-1.773916053771973E+001
-5.8139300E-001	-2.681459045410156E+001
-5.3141218E-001	-1.784554910659790E+001
-5.9150296E-001	-2.694246816635132E+001
-5.4144192E-001	-1.788709163665771E+001
-6.0146022E-001	-2.699766826629639E+001
-5.5138391E-001	-1.796702671051025E+001
-6.1150140E-001	-2.706499719619751E+001
-5.6135255E-001	-1.798058795928955E+001
-6.2150830E-001	-2.712153339385986E+001
-5.7142055E-001	-1.804572010040283E+001
-6.3151890E-001	-2.717004871368408E+001
-5.8137774E-001	-1.805374240875244E+001
-6.4153343E-001	-2.723728179931641E+001
-5.9148389E-001	-1.812708806991577E+001
-6.5150976E-001	-2.727280855178833E+001
-6.0140675E-001	-1.814991331100464E+001
-6.6147077E-001	-2.735656309127808E+001
-6.1144412E-001	-1.821026992797852E+001
-6.7141658E-001	-2.740603446960449E+001
-6.2153119E-001	-1.826823949813843E+001
-6.8151504E-001	-2.752340459823608E+001
-6.3154179E-001	-1.834062957763672E+001
-6.9146085E-001	-2.759713268280029E+001
-6.4149523E-001	-1.843221569061279E+001
-7.0152116E-001	-2.773140811920166E+001
-6.5150595E-001	-1.851339244842529E+001
-7.1154326E-001	-2.783607816696167E+001
-6.6153949E-001	-1.864231967926025E+001
-7.2149289E-001	-2.798391485214233E+001
-6.7147386E-001	-1.873572015762329E+001
-7.3144627E-001	-2.812000417709351E+001
-6.8148834E-001	-1.889635372161865E+001
-7.4146461E-001	-2.827911090850830E+001
-6.9148755E-001	-1.900579881668091E+001
-7.5149053E-001	-2.844900798797607E+001
-7.0149064E-001	-1.918295526504517E+001
-7.6150507E-001	-2.861441755294800E+001
-7.1144021E-001	-1.931436491012573E+001
-7.7146995E-001	-2.880828523635864E+001
-7.2147375E-001	-1.949791908264160E+001
-7.8144616E-001	-2.896586322784424E+001
-7.3150736E-001	-1.964594697952271E+001
-7.9146457E-001	-2.917768478393555E+001
-7.4151421E-001	-1.982339000701904E+001
-8.0144465E-001	-2.933870124816895E+001
-7.5144470E-001	-1.999147272109985E+001
-8.1147826E-001	-2.955549049377441E+001
-7.6145542E-001	-2.016108274459839E+001
-8.2144696E-001	-2.972233295440674E+001
-7.7146608E-001	-2.034215450286865E+001
-8.3146143E-001	-2.993530082702637E+001
-7.8141183E-001	-2.050288438796997E+001
-8.4151793E-001	-3.010090112686157E+001
-7.9142636E-001	-2.069063949584961E+001
-8.5143316E-001	-3.031110000610352E+001
-8.0144083E-001	-2.083198308944702E+001
-8.6142856E-001	-3.048605871200562E+001
-8.1150115E-001	-2.103139019012451E+001
-8.7139350E-001	-3.067266845703125E+001
-8.2150799E-001	-2.116891288757324E+001
-8.8148433E-001	-3.085593748092651E+001
-8.3140796E-001	-2.135571384429932E+001
-8.9147586E-001	-3.102287387847900E+001
-8.4143013E-001	-2.149686622619629E+001
-9.0156293E-001	-3.122056198120117E+001
-8.5140264E-001	-2.167956066131592E+001
-9.1145146E-001	-3.137460708618164E+001
-8.6148202E-001	-2.182281208038330E+001
-9.2149651E-001	-3.158069944381714E+001
-8.7145835E-001	-2.199738979339600E+001
-9.3139261E-001	-3.172404623031616E+001
-8.8150716E-001	-2.215792798995972E+001
-9.4139946E-001	-3.193577384948730E+001
-8.9144534E-001	-2.231913566589355E+001
-9.5147121E-001	-3.208284807205200E+001
-9.0142930E-001	-2.249820041656494E+001
-9.6138263E-001	-3.228521633148193E+001
-9.1145527E-001	-2.264804315567017E+001
-9.7138566E-001	-3.244966983795166E+001
-9.2150795E-001	-2.285088872909546E+001
-9.8146510E-001	-3.265385150909424E+001
-9.3146515E-001	-2.300588798522949E+001
-9.9136120E-001	-3.285134887695313E+001
-9.4136894E-001	-2.322515916824341E+001
-1.0014483E+000	-3.306365013122559E+001
-9.5146745E-001	-2.340871429443359E+001
-1.0114361E+000	-3.332274627685547E+001
-9.6142465E-001	-2.366313076019287E+001
-1.0214772E+000	-3.356149959564209E+001
-9.7142768E-001	-2.389290761947632E+001
-1.0315070E+000	-3.386605644226074E+001
-9.8142314E-001	-2.418504810333252E+001
-1.0414720E+000	-3.415256023406982E+001
-9.9136502E-001	-2.448052930831909E+001
-1.0515169E+000	-3.451833057403564E+001
-1.0015169E+000	-2.483025789260864E+001
-1.0614359E+000	-3.484093570709229E+001
-1.0114781E+000	-2.517950725555420E+001
-1.0713931E+000	-3.523621845245361E+001
-1.0215689E+000	-2.551624679565430E+001
-1.0815184E+000	-3.558117103576660E+001
-1.0314765E+000	-2.588621902465820E+001
-1.0915177E+000	-3.596795177459717E+001
-1.0414528E+000	-2.620777463912964E+001
-1.1014978E+000	-3.630430889129639E+001
-1.0514635E+000	-2.656733798980713E+001
-1.1115161E+000	-3.664477252960205E+001
-1.0614474E+000	-2.685135936737061E+001
-1.1214733E+000	-3.694483947753906E+001
-1.0715269E+000	-2.716307735443115E+001
-1.1314038E+000	-3.720422077178955E+001
-1.0814763E+000	-2.737843370437622E+001
-1.1414260E+000	-3.743523979187012E+001
-1.0914756E+000	-2.761575555801392E+001
-1.1514558E+000	-3.759587478637695E+001
-1.1015016E+000	-2.775079488754272E+001
-1.1614397E+000	-3.774285221099854E+001
-1.1114894E+000	-2.788010358810425E+001
-1.1714008E+000	-3.778764152526855E+001
-1.1214275E+000	-2.792403507232666E+001
-1.1813771E+000	-3.785000514984131E+001
-1.1315451E+000	-2.793062353134155E+001
-1.1914030E+000	-3.779881572723389E+001
-1.1414374E+000	-2.790894699096680E+001
-1.2014519E+000	-3.778238868713379E+001
-1.1514367E+000	-2.782872438430786E+001
-1.2114205E+000	-3.768077468872070E+001
-1.1614435E+000	-2.775509214401245E+001
-1.2213968E+000	-3.761077213287354E+001
-1.1713932E+000	-2.761527824401855E+001