Ewe/V	<I>/mA	
1.2785890E+000	4.536129760742188E+001
1.3285469E+000	5.414873123168945E+001
1.2685859E+000	4.360737864176429E+001
1.3185898E+000	5.239035542805993E+001
1.2585638E+000	4.196576690673828E+001
1.3085829E+000	5.065069707234704E+001
1.2485570E+000	4.031562805175781E+001
1.2985339E+000	4.891485468546546E+001
1.2385539E+000	3.872876739501953E+001
1.2885348E+000	4.725427118937171E+001
1.2285546E+000	3.717208862304688E+001
1.2785736E+000	4.559139633178711E+001
1.2185860E+000	3.560395304361975E+001
1.2685668E+000	4.394405619303382E+001
1.2085028E+000	3.410393778483069E+001
1.2585676E+000	4.237107721964514E+001
1.1986524E+000	3.262760925292969E+001
1.2485301E+000	4.078256479899085E+001
1.1886265E+000	3.114962832132977E+001
1.2385958E+000	3.922321192423499E+001
1.1785815E+000	2.973518371582031E+001
1.2286081E+000	3.773249689737952E+001
1.1685593E+000	2.834340731302899E+001
1.2185822E+000	3.623974100748694E+001
1.1585906E+000	2.695506477355957E+001
1.2085485E+000	3.476659393310547E+001
1.1485876E+000	2.563192176818848E+001
1.1985875E+000	3.337137858072913E+001
1.1385502E+000	2.433309745788574E+001
1.1886418E+000	3.196559715270996E+001
1.1285738E+000	2.303745841979980E+001
1.1785777E+000	3.060450236002606E+001
1.1186243E+000	2.180879720052081E+001
1.1685708E+000	2.930020586649573E+001
1.1085755E+000	2.059847195943195E+001
1.1586441E+000	2.799387041727698E+001
1.0986410E+000	1.940049680074054E+001
1.1486716E+000	2.673732058207196E+001
1.0885845E+000	1.827039273579913E+001
1.1385731E+000	2.554100481669104E+001
1.0784823E+000	1.714462025960285E+001
1.1285853E+000	2.434595934549964E+001
1.0684793E+000	1.604558595021567E+001
1.1185441E+000	2.320197486877441E+001
1.0585029E+000	1.500983842213947E+001
1.1085793E+000	2.211312802632648E+001
1.0484655E+000	1.399382813771567E+001
1.0986143E+000	2.102746518452960E+001
1.0384586E+000	1.300506718953451E+001
1.0885655E+000	1.999897511800128E+001
1.0285395E+000	1.207921059926349E+001
1.0785739E+000	1.901976394653320E+001
1.0184908E+000	1.115653578440347E+001
1.0685441E+000	1.805379676818848E+001
1.0085412E+000	1.027002525329590E+001
1.0584800E+000	1.715404129028320E+001
9.9848080E-001	9.440688769022614E+000
1.0484846E+000	1.628777885437012E+001
9.8852354E-001	8.614152908325195E+000
1.0385274E+000	1.543182977040607E+001
9.7850907E-001	7.822508017222091E+000
1.0285358E+000	1.464769681294757E+001
9.6843344E-001	7.086763064066560E+000
1.0185212E+000	1.389017740885416E+001
9.5848775E-001	6.357511838277176E+000
1.0085411E+000	1.315112145741779E+001
9.4849610E-001	5.665187994639084E+000
9.9848461E-001	1.247802575429279E+001
9.3847400E-001	5.025071620941162E+000
9.8852742E-001	1.182823149363199E+001
9.2850912E-001	4.375023841857910E+000
9.7853202E-001	1.119104417165121E+001
9.1854805E-001	3.776164372762047E+000
9.6847165E-001	1.062643782297769E+001
9.0854120E-001	3.221617698669434E+000
9.5851058E-001	1.006870746612549E+001
8.9845419E-001	2.659303585688271E+000
9.4859540E-001	9.530841509501130E+000
8.8844728E-001	2.141557017962139E+000
9.3857706E-001	9.056135177612305E+000
8.7849009E-001	1.662775158882141E+000
9.2857784E-001	8.585757891337067E+000
8.6855197E-001	1.176480392615000E+000
9.1854042E-001	8.135881423950195E+000
8.5855657E-001	7.370452483495065E-001
9.0854883E-001	7.742540995279953E+000
8.4845042E-001	3.289346173405647E-001
8.9849621E-001	7.342707792917878E+000
8.3855814E-001	-8.592480421066284E-002
8.8857335E-001	6.965667088826493E+000
8.2850921E-001	-4.572354654471082E-001
8.7860465E-001	6.644781271616608E+000
8.1852531E-001	-8.068990707397461E-001
8.6850613E-001	6.313962936401367E+000
8.0855662E-001	-1.162420133749643E+000
8.5860616E-001	6.005556106567383E+000
7.9850775E-001	-1.471845666567486E+000
8.4864515E-001	5.747956434885651E+000
7.8849703E-001	-1.759751439094543E+000
8.3857334E-001	5.475457986195877E+000
7.7858567E-001	-2.060645341873169E+000
8.2861233E-001	5.222060044606522E+000
7.6857120E-001	-2.310987313588463E+000
8.1853294E-001	5.022397518157959E+000
7.5854903E-001	-2.547449668248497E+000
8.0857188E-001	4.801470279693604E+000
7.4856508E-001	-2.792188644409180E+000
7.9856884E-001	4.599643548329666E+000
7.3853147E-001	-2.982937256495156E+000
7.8855819E-001	4.449515183766678E+000
7.2855902E-001	-3.169993400573730E+000
7.7851695E-001	4.267297585805252E+000
7.1858650E-001	-3.367235819498703E+000
7.6853675E-001	4.115385850270584E+000
7.0861399E-001	-3.514054218928017E+000
7.5857192E-001	3.999893029530845E+000
6.9859564E-001	-3.663546085357666E+000
7.4854594E-001	3.850018819173179E+000
6.8860793E-001	-3.828445672988892E+000
7.3848951E-001	3.733124891916908E+000
6.7858195E-001	-3.938972949981689E+000
7.2853225E-001	3.652903397878006E+000
6.6849494E-001	-4.083880901336670E+000
7.1851778E-001	3.544795751571655E+000
6.5850329E-001	-4.230826059977218E+000
7.0849180E-001	3.466101964314781E+000
6.4848500E-001	-4.328874588012695E+000
6.9851166E-001	3.413894494374588E+000
6.3847816E-001	-4.447424093882248E+000
6.8849719E-001	3.326669613520302E+000
6.2843692E-001	-4.581890741984054E+000
6.7847890E-001	3.273188670476273E+000
6.1852932E-001	-4.669752120971680E+000
6.6838801E-001	3.223145643870033E+000
6.0848427E-001	-4.782825946807861E+000
6.5832007E-001	3.157567818959549E+000
5.9848124E-001	-4.908124446868896E+000
6.4837044E-001	3.128026088078819E+000
5.8847433E-001	-4.988982677459717E+000
6.3838655E-001	3.103322982788086E+000
5.7850569E-001	-5.099255243937179E+000
6.2844837E-001	3.044748624165855E+000
5.6851792E-001	-5.208890914916992E+000
6.1839187E-001	3.011259158452347E+000
5.5851871E-001	-5.276251792907715E+000
6.0847282E-001	2.977260589599609E+000
5.4851949E-001	-5.374427636464432E+000
5.9844303E-001	2.906461874643959E+000
5.3856605E-001	-5.464072068532317E+000
5.8844382E-001	2.877429564793900E+000
5.2854013E-001	-5.518698851267501E+000
5.7844079E-001	2.832734743754067E+000
5.1853323E-001	-5.621076742808029E+000
5.6844920E-001	2.747292439142861E+000
5.0860274E-001	-5.725873947143555E+000
5.5853015E-001	2.704380273818970E+000
4.9856532E-001	-5.788523038228362E+000
5.4846603E-001	2.647970596949257E+000
4.8854703E-001	-5.891028245290130E+000
5.3845912E-001	2.550304333368935E+000
4.7858214E-001	-5.982200940450042E+000
5.2850956E-001	2.486254215240479E+000
4.6855235E-001	-6.046505292256683E+000
5.1849890E-001	2.389606634775795E+000
4.5852643E-001	-6.132202148437500E+000
5.0849581E-001	2.250556151072182E+000
4.4859210E-001	-6.207712173461914E+000
4.9847752E-001	2.137482166290283E+000
4.3858907E-001	-6.254571119944259E+000
4.8853555E-001	1.990027745564777E+000
4.2855927E-001	-6.394894917805999E+000
4.7842944E-001	1.802589734395344E+000
4.1853335E-001	-6.575838883717850E+000
4.6847221E-001	1.663029829661053E+000
4.0852648E-001	-6.735899766286224E+000
4.5851496E-001	1.499785542488098E+000
3.9856163E-001	-6.941674073537186E+000
4.4854626E-001	1.318077524503071E+000
3.8855475E-001	-7.137516498565674E+000
4.3849742E-001	1.174442966779072E+000
3.7855172E-001	-7.310183366139725E+000
4.2843330E-001	1.002412637074787E+000
3.6853340E-001	-7.542188962300628E+000
4.1853717E-001	8.111546039581299E-001
3.5858762E-001	-7.756113052368164E+000
4.0850738E-001	6.522397200266514E-001
3.4850058E-001	-7.963797092437744E+000
3.9855778E-001	4.669664204120636E-001
3.3848226E-001	-8.230310757954925E+000
3.8849747E-001	2.645027985175452E-001
3.2860523E-001	-8.474158604939788E+000
3.7860897E-001	8.877966064028398E-002
3.1856781E-001	-8.710875511169434E+000
3.6860976E-001	-1.169946870456139E-001
3.0852658E-001	-9.013170242309570E+000
3.5857233E-001	-3.319371988375983E-001
2.9858083E-001	-9.280447959899902E+000
3.4866095E-001	-5.177198747793836E-001
2.8853196E-001	-9.546578407287598E+000
3.3867317E-001	-7.410665353139247E-001
2.7862436E-001	-9.867592175801605E+000
3.2868159E-001	-9.776560465494804E-001
2.6854494E-001	-1.016173744201660E+001
3.1867471E-001	-1.203549544016521E+000
2.5856480E-001	-1.044722302754721E+001
3.0858767E-001	-1.484579205513000E+000
2.4842051E-001	-1.079497718811035E+001
2.9865336E-001	-1.775413672129314E+000
2.3849383E-001	-1.108657582600912E+001
2.8863502E-001	-2.044091939926147E+000
2.2848696E-001	-1.137881151835123E+001
2.7860144E-001	-2.349570035934448E+000
2.1851446E-001	-1.171026611328125E+001
2.6859459E-001	-2.640276988347374E+000
2.0851141E-001	-1.199065876007080E+001
2.5862208E-001	-2.896858533223472E+000
1.9840910E-001	-1.227436224619547E+001
2.4847013E-001	-3.202718734741211E+000
1.8839842E-001	-1.256876214345297E+001
2.3850909E-001	-3.468977371851608E+000
1.7845647E-001	-1.281273810068768E+001
2.2841823E-001	-3.690159241358444E+000
1.6852596E-001	-1.305072784423828E+001
2.1850681E-001	-3.949160019556686E+000
1.5846565E-001	-1.331036535898846E+001
2.0851523E-001	-4.165885130564376E+000
1.4850841E-001	-1.349869505564371E+001
1.9848163E-001	-4.343390941619873E+000
1.3851683E-001	-1.368549505869547E+001
1.8847479E-001	-4.543435573577881E+000
1.2844506E-001	-1.387891864776611E+001
1.7851755E-001	-4.705788294474289E+000
1.1848402E-001	-1.400141493479410E+001
1.6855270E-001	-4.817461649576828E+000
1.0846570E-001	-1.411869176228842E+001
1.5846947E-001	-4.957785129547119E+000
9.8455027E-002	-1.423813120524090E+001
1.4854661E-001	-5.046538352966309E+000
8.8493980E-002	-1.428422705332437E+001
1.3852829E-001	-5.094161510467529E+000
7.8574926E-002	-1.433121363321942E+001
1.2856342E-001	-5.163432280222580E+000
6.8484068E-002	-1.437285327911377E+001
1.1853366E-001	-5.182023525238037E+000
5.8545928E-002	-1.434458541870117E+001
1.0852297E-001	-5.167634487152100E+000
4.8539069E-002	-1.432968584696451E+001
9.8527566E-002	-5.173746744791671E+000
3.8513117E-002	-1.431147766113281E+001
8.8558882E-002	-5.127778689066574E+000
2.8540617E-002	-1.421419334411621E+001
7.8548200E-002	-5.056597709655762E+000
1.8499395E-002	-1.414390341440838E+001
6.8579517E-002	-5.007573604583740E+000
8.5154399E-003	-1.406189918518066E+001
5.8572657E-002	-4.906087080637619E+000
-1.5105115E-003	-1.391470019022626E+001
4.8542887E-002	-4.785118261973068E+000
-1.1479192E-002	-1.379615052541098E+001
3.8536027E-002	-4.691271781921387E+000
-2.1493688E-002	-1.366333897908530E+001
2.8574981E-002	-4.539487838745117E+000
-3.1554002E-002	-1.347653738657635E+001
1.8568117E-002	-4.385539054870605E+000
-4.1431051E-002	-1.332882849375406E+001
8.6414320E-003	-4.260622660319015E+000
-5.1502816E-002	-1.317335192362467E+001
-1.3730652E-003	-4.093176523844406E+000
-6.1395142E-002	-1.297037887573242E+001
-1.1463921E-002	-3.925602992375694E+000
-7.1497448E-002	-1.282597955067953E+001
-2.1451691E-002	-3.801577965418502E+000
-8.1481397E-002	-1.266579214731851E+001
-3.1386010E-002	-3.632348696390793E+000
-9.1469176E-002	-1.249083391825360E+001
-4.1423418E-002	-3.490751663843788E+000
-1.0150276E-001	-1.235904026031494E+001
-5.1479910E-002	-3.368509689966842E+000
-1.1144853E-001	-1.221502431233725E+001
-6.1433323E-002	-3.215070088704429E+000
-1.2150121E-001	-1.206005636850992E+001
-7.1455449E-002	-3.093719402949013E+000
-1.3145462E-001	-1.196175384521484E+001
-8.1450857E-002	-2.993760983149208E+000
-1.4141949E-001	-1.184434986114502E+001
-9.1446258E-002	-2.867316643397018E+000
-1.5145689E-001	-1.171714178721112E+001
-1.0136913E-001	-2.769140879313156E+000
-1.6145611E-001	-1.164354197184247E+001
-1.1142562E-001	-2.697069088617958E+000
-1.7154697E-001	-1.156955973307294E+001
-1.2144393E-001	-2.592398881912231E+000
-1.8159963E-001	-1.148144340515137E+001
-1.3134772E-001	-2.532933473587036E+000
-1.9155306E-001	-1.145355701446533E+001
-1.4135839E-001	-2.495114644368492E+000
-2.0152555E-001	-1.140593369801840E+001
-1.5139198E-001	-2.424188613891602E+000
-2.1154006E-001	-1.135945606231689E+001
-1.6142558E-001	-2.404451688130699E+000
-2.2152781E-001	-1.137715625762939E+001
-1.7146678E-001	-2.414129098256431E+000
-2.3150031E-001	-1.136289405822754E+001
-1.8152711E-001	-2.382677316665649E+000
-2.4147281E-001	-1.137371826171875E+001
-1.9147669E-001	-2.413110574086510E+000
-2.5154841E-001	-1.145113786061606E+001
-2.0152555E-001	-2.459460496902466E+000
-2.6149419E-001	-1.150360075632730E+001
-2.1141405E-001	-2.489257097244263E+000
-2.7155066E-001	-1.159872023264566E+001
-2.2148199E-001	-2.595200379689537E+000
-2.8156519E-001	-1.176922257741293E+001
-2.3152323E-001	-2.732595602671310E+000
-2.9146513E-001	-1.194023354848227E+001
-2.4151863E-001	-2.880050102869667E+000
-3.0159417E-001	-1.216969331105551E+001
-2.5152168E-001	-3.125425736109413E+000
-3.1149790E-001	-1.250101979573569E+001
-2.6149800E-001	-3.428229888280235E+000
-3.2150480E-001	-1.285704962412515E+001
-2.7149341E-001	-3.763122638066612E+000
-3.3144674E-001	-1.329839515686035E+001
-2.8147355E-001	-4.224968910217285E+000
-3.4144977E-001	-1.385816319783530E+001
-2.9149950E-001	-4.748700300852462E+000
-3.5155973E-001	-1.445103708902997E+001
-3.0154452E-001	-5.323747793833419E+000
-3.6151314E-001	-1.513623046875000E+001
-3.1148648E-001	-6.013143380482987E+000
-3.7152001E-001	-1.591552416483560E+001
-3.2143989E-001	-6.759075005849198E+000
-3.8149631E-001	-1.671238962809247E+001
-3.3146203E-001	-7.536840915679932E+000
-3.9154899E-001	-1.758756828308105E+001
-3.4141162E-001	-8.406797726949065E+000
-4.0152532E-001	-1.852475929260254E+001
-3.5144901E-001	-9.299038251241058E+000
-4.1147873E-001	-1.944323158264160E+001
-3.6142153E-001	-1.019484456380209E+001
-4.2147413E-001	-2.041913032531738E+001
-3.7142456E-001	-1.116437784830731E+001
-4.3146574E-001	-2.141706085205078E+001
-3.8140088E-001	-1.210997200012207E+001
-4.4143441E-001	-2.237538909912109E+001
-3.9144209E-001	-1.304385121663412E+001
-4.5152527E-001	-2.335816319783527E+001
-4.0150625E-001	-1.401325766245523E+001
-4.6146721E-001	-2.433737436930340E+001
-4.1147110E-001	-1.493593184153238E+001
-4.7143209E-001	-2.524273109436035E+001
-4.2143595E-001	-1.582091299692792E+001
-4.8147330E-001	-2.616438611348468E+001
-4.3139318E-001	-1.673110961914063E+001
-4.9140000E-001	-2.705611737569177E+001
-4.4144204E-001	-1.755598894755047E+001
-5.0147939E-001	-2.786100769042969E+001
-4.5147181E-001	-1.834254074096680E+001
-5.1139081E-001	-2.866385714213055E+001
-4.6149012E-001	-1.912616411844891E+001
-5.2146256E-001	-2.941386413574219E+001
-4.7143972E-001	-1.981670570373535E+001
-5.3140831E-001	-3.007766405741376E+001
-4.8140076E-001	-2.045440165201825E+001
-5.4146099E-001	-3.072758611043298E+001
-4.9138471E-001	-2.107936477661133E+001
-5.5141062E-001	-3.131447537740070E+001
-5.0145262E-001	-2.160016822814941E+001
-5.6149006E-001	-3.180280621846515E+001
-5.1138318E-001	-2.207258224487305E+001
-5.7142431E-001	-3.228732045491540E+001
-5.2134043E-001	-2.252347882588703E+001
-5.8138925E-001	-3.270230611165368E+001
-5.3143507E-001	-2.287390518188477E+001
-5.9151822E-001	-3.304585647583008E+001
-5.4147631E-001	-2.318154970804852E+001
-6.0149455E-001	-3.337081527709961E+001
-5.5149078E-001	-2.347289339701337E+001
-6.1144412E-001	-3.362892659505212E+001
-5.6136400E-001	-2.366618792215985E+001
-6.2147009E-001	-3.382247670491540E+001
-5.7142437E-001	-2.384534899393719E+001
-6.3154566E-001	-3.402137374877930E+001
-5.8143121E-001	-2.401776250203454E+001
-6.4156014E-001	-3.417506917317712E+001
-5.9149915E-001	-2.413121859232587E+001
-6.5147537E-001	-3.427820968627930E+001
-6.0149455E-001	-2.423588879903161E+001
-6.6147459E-001	-3.441942596435547E+001
-6.1147469E-001	-2.435048993428546E+001
-6.7145854E-001	-3.452091217041016E+001
-6.2147009E-001	-2.441122881571454E+001
-6.8146539E-001	-3.460699081420898E+001
-6.3146544E-001	-2.450660324096680E+001
-6.9152194E-001	-3.474362309773767E+001
-6.4152580E-001	-2.462209637959796E+001
-7.0152497E-001	-3.485516866048181E+001
-6.5146011E-001	-2.470270093282068E+001
-7.1156621E-001	-3.496976852416992E+001
-6.6154331E-001	-2.483869489034021E+001
-7.2145468E-001	-3.514765675862634E+001
-6.7149293E-001	-2.499557240804040E+001
-7.3143864E-001	-3.529778798421228E+001
-6.8152648E-001	-2.511857795715332E+001
-7.4140733E-001	-3.546268844604492E+001
-6.9156390E-001	-2.530729039510095E+001
-7.5147146E-001	-3.569138081868493E+001
-7.0155174E-001	-2.550695164998371E+001
-7.6147068E-001	-3.588493092854822E+001
-7.1145928E-001	-2.567949104309082E+001
-7.7149665E-001	-3.609847259521484E+001
-7.2150052E-001	-2.591939163208008E+001
-7.8148443E-001	-3.637199147542322E+001
-7.3141187E-001	-2.615317916870117E+001
-7.9152179E-001	-3.659737141927087E+001
-7.4151802E-001	-2.636455790201825E+001
-8.0147904E-001	-3.684504445393884E+001
-7.5151342E-001	-2.664163970947266E+001
-8.1149358E-001	-3.714873886108398E+001
-7.6142484E-001	-2.690929857889813E+001
-8.2146609E-001	-3.740850448608398E+001
-7.7145845E-001	-2.714716275533038E+001
-8.3146524E-001	-3.768558502197266E+001
-7.8141183E-001	-2.744563674926758E+001
-8.4147978E-001	-3.801041793823242E+001
-7.9148740E-001	-2.774003664652508E+001
-8.5141408E-001	-3.828520584106445E+001
-8.0143327E-001	-2.799738057454431E+001
-8.6150491E-001	-3.859412129720056E+001
-8.1144387E-001	-2.832004992167157E+001
-8.7150413E-001	-3.893652725219727E+001
-8.2148129E-001	-2.862107213338220E+001
-8.8155681E-001	-3.922379811604822E+001
-8.3144230E-001	-2.889981079101563E+001
-8.9138424E-001	-3.954226430257165E+001
-8.4141862E-001	-2.923101043701172E+001
-9.0144455E-001	-3.988670730590820E+001
-8.5145223E-001	-2.953406842549646E+001
-9.1139418E-001	-4.017703374226892E+001
-8.6145151E-001	-2.981675275166828E+001
-9.2144680E-001	-4.051014455159509E+001
-8.7144691E-001	-3.015826733907068E+001
-9.3140787E-001	-4.086082458496094E+001
-8.8145375E-001	-3.046782048543292E+001
-9.4152546E-001	-4.115764363606775E+001
-8.9138806E-001	-3.076374880472821E+001
-9.5144451E-001	-4.149304707845056E+001
-9.0145224E-001	-3.110602696736657E+001
-9.6150100E-001	-4.184703954060876E+001
-9.1143614E-001	-3.141659736633301E+001
-9.7145826E-001	-4.214627838134766E+001
-9.2141241E-001	-3.171850903828937E+001
-9.8144984E-001	-4.249339675903320E+001
-9.3146515E-001	-3.208090718587243E+001
-9.9145669E-001	-4.285248311360681E+001
-9.4139183E-001	-3.239427947998047E+001
-1.0014521E+000	-4.316343688964844E+001
-9.5141011E-001	-3.271363830566406E+001
-1.0115391E+000	-4.354098765055346E+001
-9.6141320E-001	-3.307680130004883E+001
-1.0215079E+000	-4.390211359659827E+001
-9.7143531E-001	-3.341169357299805E+001
-1.0316675E+000	-4.423802439371752E+001
-9.8141932E-001	-3.375104268391931E+001
-1.0414490E+000	-4.462231953938806E+001
-9.9137264E-001	-3.414068984985352E+001
-1.0515016E+000	-4.501273218790698E+001
-1.0015628E+000	-3.450716145833337E+001
-1.0615009E+000	-4.536940002441406E+001
-1.0115429E+000	-3.488649495442712E+001
-1.0715879E+000	-4.579584630330407E+001
-1.0215498E+000	-3.532057952880859E+001
-1.0815451E+000	-4.623044204711914E+001
-1.0315338E+000	-3.573123677571618E+001
-1.0914298E+000	-4.666134643554688E+001
-1.0415101E+000	-3.617844136555993E+001
-1.1015208E+000	-4.716979471842456E+001
-1.0515780E+000	-3.668613052368164E+001
-1.1114397E+000	-4.768028513590502E+001
-1.0614742E+000	-3.716325505574548E+001
-1.1215535E+000	-4.817090733846032E+001
-1.0714352E+000	-3.767985534667969E+001
-1.1313963E+000	-4.873182042439782E+001
-1.0814764E+000	-3.823656590779626E+001
-1.1414450E+000	-4.927147165934241E+001
-1.0915215E+000	-3.873355484008789E+001
-1.1515130E+000	-4.977521006266272E+001
-1.1015283E+000	-3.925881576538086E+001
-1.1615161E+000	-5.032440821329760E+001
-1.1114780E+000	-3.978954823811853E+001
-1.1714885E+000	-5.082471084594727E+001
-1.1214733E+000	-4.024910354614258E+001
-1.1815259E+000	-5.128082656860352E+001
-1.1314229E+000	-4.071820958455407E+001
-1.1915252E+000	-5.175655364990234E+001
-1.1414489E+000	-4.116541290283203E+001
-1.2014861E+000	-5.215218226114916E+001
-1.1514329E+000	-4.151749801635742E+001
-1.2113976E+000	-5.249369939168298E+001
-1.1614664E+000	-4.186626815795898E+001
-1.2214580E+000	-5.284145100911462E+001
-1.1715192E+000	-4.217773183186853E+001