Ewe/V	<I>/mA	
1.2785431E+000	6.045629882812500E+001
1.3285621E+000	7.007465362548828E+001
1.2685707E+000	5.843491363525391E+001
1.3185744E+000	6.816195297241211E+001
1.2585982E+000	5.659497642517090E+001
1.3086134E+000	6.628209304809570E+001
1.2485837E+000	5.478827285766602E+001
1.2985836E+000	6.441656112670898E+001
1.2385920E+000	5.301213455200195E+001
1.2886035E+000	6.259210395812988E+001
1.2286234E+000	5.126006126403809E+001
1.2785318E+000	6.080086898803711E+001
1.2185936E+000	4.953835487365723E+001
1.2685746E+000	5.902587318420410E+001
1.2085600E+000	4.783193016052246E+001
1.2586058E+000	5.726769065856934E+001
1.1985914E+000	4.614135742187500E+001
1.2485454E+000	5.552516937255859E+001
1.1885883E+000	4.445861816406250E+001
1.2386149E+000	5.379773330688477E+001
1.1785241E+000	4.280166435241699E+001
1.2285546E+000	5.208423805236816E+001
1.1685898E+000	4.115769577026367E+001
1.2186470E+000	5.039538574218750E+001
1.1585600E+000	3.953283119201660E+001
1.2086020E+000	4.872945594787598E+001
1.1485952E+000	3.794043540954590E+001
1.1985990E+000	4.709866714477539E+001
1.1386074E+000	3.637458992004395E+001
1.1885616E+000	4.548698043823242E+001
1.1285356E+000	3.484178733825684E+001
1.1785815E+000	4.392495536804199E+001
1.1185975E+000	3.334871482849121E+001
1.1686280E+000	4.238202857971191E+001
1.1085869E+000	3.186213397979736E+001
1.1586250E+000	4.085686683654785E+001
1.0985495E+000	3.039178943634033E+001
1.1486295E+000	3.935844612121582E+001
1.0885693E+000	2.894398403167725E+001
1.1386303E+000	3.787014579772949E+001
1.0784441E+000	2.750725555419922E+001
1.1286159E+000	3.641565704345703E+001
1.0684448E+000	2.610529136657715E+001
1.1186548E+000	3.498637771606445E+001
1.0584953E+000	2.473579597473145E+001
1.1086289E+000	3.359472846984863E+001
1.0484731E+000	2.338578510284424E+001
1.0986716E+000	3.223573493957520E+001
1.0384930E+000	2.209288215637207E+001
1.0885655E+000	3.090196037292480E+001
1.0284175E+000	2.081908130645752E+001
1.0785128E+000	2.961765384674072E+001
1.0184908E+000	1.957794189453125E+001
1.0685823E+000	2.835569381713867E+001
1.0084686E+000	1.836831569671631E+001
1.0585182E+000	2.713632869720459E+001
9.9852282E-001	1.717416191101074E+001
1.0485724E+000	2.592861366271973E+001
9.8844719E-001	1.599815511703491E+001
1.0385808E+000	2.475967121124268E+001
9.7847086E-001	1.485328102111816E+001
1.0285969E+000	2.360753917694092E+001
9.6842200E-001	1.373896646499634E+001
1.0185862E+000	2.249074172973633E+001
9.5849156E-001	1.264470720291138E+001
1.0085527E+000	2.140431499481201E+001
9.4850379E-001	1.159285211563110E+001
9.9858767E-001	2.035551548004150E+001
9.3843961E-001	1.056296110153198E+001
9.8858464E-001	1.934033203125000E+001
9.2847860E-001	9.570316314697266E+000
9.7856635E-001	1.836258506774902E+001
9.1844499E-001	8.612625122070313E+000
9.6859002E-001	1.741769123077393E+001
9.0844196E-001	7.678809881210327E+000
9.5859462E-001	1.649228000640869E+001
8.9842361E-001	6.763521671295166E+000
9.4861448E-001	1.559742927551270E+001
8.8852751E-001	5.873254299163818E+000
9.3855804E-001	1.472759962081909E+001
8.7849009E-001	5.004379987716675E+000
9.2865425E-001	1.388546514511108E+001
8.6851758E-001	4.171414256095886E+000
9.1862446E-001	1.307713937759399E+001
8.5848784E-001	3.366907596588135E+000
9.0860230E-001	1.230147409439087E+001
8.4852678E-001	2.593343853950500E+000
8.9861071E-001	1.156152677536011E+001
8.3846265E-001	1.852250635623932E+000
8.8863057E-001	1.086493682861328E+001
8.2852834E-001	1.153369039297104E+000
8.7861228E-001	1.020005464553833E+001
8.1846422E-001	4.749249182641506E-001
8.6857104E-001	9.571844577789307E+000
8.0845356E-001	-1.643635183572769E-001
8.5864437E-001	8.972475528717041E+000
7.9849249E-001	-7.742374092340469E-001
8.4858787E-001	8.408442497253418E+000
7.8846651E-001	-1.354505807161331E+000
8.3856189E-001	7.882801294326782E+000
7.7849782E-001	-1.905550539493561E+000
8.2854742E-001	7.381990909576416E+000
7.6851010E-001	-2.417248725891113E+000
8.1853294E-001	6.924537181854248E+000
7.5846118E-001	-2.890555024147034E+000
8.0856425E-001	6.508913993835449E+000
7.4848485E-001	-3.323177933692932E+000
7.9862612E-001	6.137984991073608E+000
7.3855060E-001	-3.712824702262878E+000
7.8863829E-001	5.799335718154907E+000
7.2850937E-001	-4.063889026641846E+000
7.7858567E-001	5.492584466934204E+000
7.1852922E-001	-4.389167904853821E+000
7.6859027E-001	5.214101552963257E+000
7.0851856E-001	-4.681402921676636E+000
7.5862920E-001	4.961213111877441E+000
6.9854224E-001	-4.949763059616089E+000
7.4859178E-001	4.731245040893555E+000
6.8854684E-001	-5.197876214981079E+000
7.3860401E-001	4.523242235183716E+000
6.7855906E-001	-5.422496318817139E+000
7.2857809E-001	4.333575963973999E+000
6.6844529E-001	-5.633363962173462E+000
7.1859032E-001	4.180773258209229E+000
6.5840787E-001	-5.812334060668945E+000
7.0857960E-001	4.032936573028564E+000
6.4845830E-001	-5.969720840454102E+000
6.9860715E-001	3.914514541625977E+000
6.3848573E-001	-6.108962535858154E+000
6.8860030E-001	3.800294399261475E+000
6.2841785E-001	-6.239799976348877E+000
6.7857051E-001	3.698489665985107E+000
6.1846441E-001	-6.357075929641724E+000
6.6844529E-001	3.582359552383423E+000
6.0840410E-001	-6.471295833587646E+000
6.5850329E-001	3.490295767784119E+000
5.9845829E-001	-6.584370374679565E+000
6.4849651E-001	3.393839359283447E+000
5.8850873E-001	-6.696297883987427E+000
6.3845146E-001	3.300056457519531E+000
5.7848281E-001	-6.812046289443970E+000
6.2846363E-001	3.207419872283936E+000
5.6851411E-001	-6.911941051483154E+000
6.1846060E-001	3.122996330261230E+000
5.5849576E-001	-7.012026786804199E+000
6.0845757E-001	3.041246652603149E+000
5.4852712E-001	-7.099506139755249E+000
5.9847361E-001	2.965227365493774E+000
5.3853935E-001	-7.186030864715576E+000
5.8841330E-001	2.891881942749023E+000
5.2854007E-001	-7.261668682098389E+000
5.7848662E-001	2.830569982528687E+000
5.1848364E-001	-7.344372749328613E+000
5.6844538E-001	2.755696654319763E+000
5.0848818E-001	-7.435672283172607E+000
5.5843085E-001	2.684261560440063E+000
4.9851570E-001	-7.525825977325439E+000
5.4843163E-001	2.607287049293518E+000
4.8852411E-001	-7.623619318008423E+000
5.3845537E-001	2.525155425071716E+000
4.7852105E-001	-7.725997924804688E+000
5.2847904E-001	2.441305041313171E+000
4.6848366E-001	-7.829903364181519E+000
5.1843393E-001	2.359746575355530E+000
4.5850733E-001	-7.936674118041992E+000
5.0842714E-001	2.282199144363403E+000
4.4851574E-001	-8.029693126678467E+000
4.9852714E-001	2.203505873680115E+000
4.3850890E-001	-8.125194072723389E+000
4.8846683E-001	2.126340389251709E+000
4.2852491E-001	-8.221078157424927E+000
4.7849813E-001	2.041343986988068E+000
4.1849133E-001	-8.324602127075195E+000
4.6851802E-001	1.946797192096710E+000
4.0850738E-001	-8.430036067962646E+000
4.5849970E-001	1.848048508167267E+000
3.9854252E-001	-8.543874263763428E+000
4.4848138E-001	1.734974443912506E+000
3.8849747E-001	-8.661532402038574E+000
4.3852034E-001	1.621327340602875E+000
3.7854025E-001	-8.791032791137695E+000
4.2850584E-001	1.492973089218140E+000
3.6855248E-001	-8.927217960357666E+000
4.1858298E-001	1.367292821407318E+000
3.5854179E-001	-9.066459178924561E+000
4.0851119E-001	1.236837565898895E+000
3.4851968E-001	-9.218307018280029E+000
3.9850816E-001	1.099697113037109E+000
3.3862355E-001	-9.363278865814209E+000
3.8863111E-001	9.541524648666382E-001
3.2855940E-001	-9.513407230377197E+000
3.7858605E-001	7.986757159233093E-001
3.1863654E-001	-9.674996376037598E+000
3.6860976E-001	6.307837069034576E-001
3.0869457E-001	-9.846899986267090E+000
3.5853034E-001	4.489484280347824E-001
2.9864573E-001	-1.003236389160156E+001
3.4858838E-001	2.508778851479292E-001
2.8865030E-001	-1.022737836837769E+001
3.3863881E-001	4.230216145515442E-002
2.7859762E-001	-1.044244766235352E+001
3.2863575E-001	-1.905309929861687E-001
2.6866713E-001	-1.066191053390503E+001
3.1862891E-001	-4.298582598567009E-001
2.5858772E-001	-1.089646291732788E+001
3.0858767E-001	-6.647924631834030E-001
2.4847013E-001	-1.115489101409912E+001
2.9868388E-001	-8.859743773937225E-001
2.3851292E-001	-1.141274452209473E+001
2.8858539E-001	-1.127211719751358E+000
2.2849077E-001	-1.166926288604736E+001
2.7858618E-001	-1.382201254367828E+000
2.1841137E-001	-1.194048738479614E+001
2.6872438E-001	-1.641583919525146E+000
2.0846178E-001	-1.221343135833740E+001
2.5874427E-001	-1.907651662826538E+000
1.9844729E-001	-1.249764490127563E+001
2.4863048E-001	-2.193583726882935E+000
1.8843278E-001	-1.278090238571167E+001
2.3853199E-001	-2.470347762107849E+000
1.7847556E-001	-1.306225061416626E+001
2.2857095E-001	-2.751122593879700E+000
1.6843434E-001	-1.335486745834351E+001
2.1853355E-001	-3.029796719551086E+000
1.5847328E-001	-1.363526105880737E+001
2.0860304E-001	-3.302358508110046E+000
1.4841680E-001	-1.389865398406982E+001
1.9856946E-001	-3.562314033508301E+000
1.3848630E-001	-1.415249824523926E+001
1.8857406E-001	-3.809663414955139E+000
1.2845270E-001	-1.438628578186035E+001
1.7854045E-001	-4.039822578430176E+000
1.1850311E-001	-1.460842275619507E+001
1.6858323E-001	-4.265015840530396E+000
1.0841225E-001	-1.482158327102661E+001
1.5854584E-001	-4.481804370880127E+000
9.8443568E-002	-1.502576589584351E+001
1.4856188E-001	-4.688661098480225E+000
8.8509254E-002	-1.521581363677979E+001
1.3856265E-001	-4.892652750015259E+000
7.8433663E-002	-1.540586280822754E+001
1.2857869E-001	-5.076971292495728E+000
6.8499342E-002	-1.557661867141724E+001
1.1857565E-001	-5.249638080596924E+000
5.8515389E-002	-1.573152351379395E+001
1.0854588E-001	-5.410463094711304E+000
4.8474163E-002	-1.587305641174316E+001
9.8531380E-002	-5.546648740768433E+000
3.8474940E-002	-1.599033164978027E+001
8.8593245E-002	-5.669654607772827E+000
2.8452804E-002	-1.609213733673096E+001
7.8597836E-002	-5.774133443832397E+000
1.8503211E-002	-1.617636966705322E+001
6.8587154E-002	-5.875174522399902E+000
8.5727088E-003	-1.625640106201172E+001
5.8637563E-002	-5.964564085006714E+000
-1.4723320E-003	-1.633585786819458E+001
4.8539072E-002	-6.050133228302002E+000
-1.1517372E-002	-1.640289974212646E+001
3.8604751E-002	-6.135511875152588E+000
-2.1528050E-002	-1.646994209289551E+001
2.8563524E-002	-6.201981306076050E+000
-3.1557821E-002	-1.652227687835693E+001
1.8644476E-002	-6.266349315643311E+000
-4.1568499E-002	-1.656066894531250E+001
8.6261602E-003	-6.307224273681641E+000
-5.1495183E-002	-1.658874702453613E+001
-1.3845189E-003	-6.335110902786255E+000
-6.1460044E-002	-1.658492660522461E+001
-1.1441013E-002	-6.342368841171265E+000
-7.1413457E-002	-1.657136535644531E+001
-2.1402057E-002	-6.330526828765869E+000
-8.1466131E-002	-1.654596138000488E+001
-3.1458553E-002	-6.305123329162598E+000
-9.1480628E-002	-1.650890731811523E+001
-4.1385237E-002	-6.273798704147339E+000
-1.0151039E-001	-1.646554851531982E+001
-5.1388279E-002	-6.234833955764771E+000
-1.1147144E-001	-1.641206836700439E+001
-6.1433319E-002	-6.179251909255981E+000
-1.2150121E-001	-1.634865427017212E+001
-7.1405821E-002	-6.118512630462646E+000
-1.3150808E-001	-1.626728820800781E+001
-8.1420310E-002	-6.031797170639038E+000
-1.4150348E-001	-1.617044925689697E+001
-9.1396630E-002	-5.925981283187866E+000
-1.5147217E-001	-1.605049943923950E+001
-1.0141495E-001	-5.794761896133423E+000
-1.6144846E-001	-1.591202163696289E+001
-1.1138745E-001	-5.649217128753662E+000
-1.7153168E-001	-1.577984714508057E+001
-1.2134086E-001	-5.491830587387085E+000
-1.8156910E-001	-1.561825752258301E+001
-1.3134772E-001	-5.329859733581543E+000
-1.9159122E-001	-1.545915269851685E+001
-1.4141184E-001	-5.174574136734009E+000
-2.0156373E-001	-1.530692243576050E+001
-1.5134616E-001	-5.011647701263428E+000
-2.1162786E-001	-1.516481637954712E+001
-1.6142556E-001	-4.868968248367310E+000
-2.2157745E-001	-1.502270889282227E+001
-1.7150114E-001	-4.745580434799194E+000
-2.3148122E-001	-1.489282751083374E+001
-1.8146983E-001	-4.610158920288086E+000
-2.4156827E-001	-1.477287721633911E+001
-1.9141941E-001	-4.486388444900513E+000
-2.5153312E-001	-1.465827512741089E+001
-2.0147210E-001	-4.361281156539917E+000
-2.6156673E-001	-1.455054950714111E+001
-2.1142551E-001	-4.256802320480347E+000
-2.7155831E-001	-1.446727180480957E+001
-2.2146672E-001	-4.166839957237244E+000
-2.8155753E-001	-1.440137529373169E+001
-2.3144686E-001	-4.099606513977051E+000
-2.9157203E-001	-1.436718606948853E+001
-2.4149573E-001	-4.070765376091003E+000
-3.0160180E-001	-1.437501716613770E+001
-2.5141859E-001	-4.084135532379150E+000
-3.1160864E-001	-1.442811584472656E+001
-2.6136053E-001	-4.146211624145508E+000
-3.2149714E-001	-1.452419090270996E+001
-2.7138650E-001	-4.256611585617065E+000
-3.3158037E-001	-1.467565679550171E+001
-2.8146592E-001	-4.409414052963257E+000
-3.4155670E-001	-1.487086153030396E+001
-2.9145747E-001	-4.604810714721680E+000
-3.5151392E-001	-1.510904312133789E+001
-3.0140325E-001	-4.853306055068970E+000
-3.6149022E-001	-1.540662574768066E+001
-3.1139866E-001	-5.153563499450684E+000
-3.7148184E-001	-1.575501632690430E+001
-3.2135969E-001	-5.508447885513306E+000
-3.8146198E-001	-1.616070747375488E+001
-3.3136657E-001	-5.921015024185181E+000
-3.9144593E-001	-1.662847614288330E+001
-3.4133142E-001	-6.406354904174805E+000
-4.0147951E-001	-1.716328525543213E+001
-3.5145283E-001	-6.952815771102905E+000
-4.1160092E-001	-1.775673294067383E+001
-3.6150551E-001	-7.553521394729614E+000
-4.2148942E-001	-1.841168212890625E+001
-3.7138256E-001	-8.221078395843506E+000
-4.3143135E-001	-1.911362075805664E+001
-3.8142759E-001	-8.928555011749268E+000
-4.4148022E-001	-1.986999416351318E+001
-3.9137718E-001	-9.679388999938965E+000
-4.5145273E-001	-2.065482711791992E+001
-4.0138406E-001	-1.046498584747314E+001
-4.6145958E-001	-2.147690582275391E+001
-4.1140234E-001	-1.128591918945313E+001
-4.7146645E-001	-2.232686996459961E+001
-4.2134050E-001	-1.212251424789429E+001
-4.8150766E-001	-2.319440841674805E+001
-4.3144664E-001	-1.298718595504761E+001
-4.9152598E-001	-2.408696842193604E+001
-4.4141912E-001	-1.387286853790283E+001
-5.0143743E-001	-2.500187301635742E+001
-4.5144507E-001	-1.478300094604492E+001
-5.1145953E-001	-2.593339729309082E+001
-4.6141759E-001	-1.570554637908936E+001
-5.2144730E-001	-2.687370681762695E+001
-4.7140917E-001	-1.663993549346924E+001
-5.3144652E-001	-2.782337665557861E+001
-4.8142368E-001	-1.757298755645752E+001
-5.4142666E-001	-2.877419185638428E+001
-4.9138090E-001	-1.850126266479492E+001
-5.5147552E-001	-2.970667076110840E+001
-5.0137627E-001	-1.941903495788574E+001
-5.6142509E-001	-3.063532829284668E+001
-5.1140225E-001	-2.032133388519287E+001
-5.7143581E-001	-3.154374027252197E+001
-5.2135950E-001	-2.120854473114014E+001
-5.8138156E-001	-3.244050216674805E+001
-5.3136253E-001	-2.208849906921387E+001
-5.9152204E-001	-3.335044097900391E+001
-5.4135412E-001	-2.295947456359863E+001
-6.0147929E-001	-3.423631477355957E+001
-5.5144882E-001	-2.382280921936035E+001
-6.1158925E-001	-3.511053848266602E+001
-5.6128770E-001	-2.467621326446533E+001
-6.2155408E-001	-3.598265838623047E+001
-5.7131362E-001	-2.553496456146240E+001
-6.3151127E-001	-3.684179115295410E+001
-5.8140826E-001	-2.637518692016602E+001
-6.4157540E-001	-3.769328689575195E+001
-5.9152973E-001	-2.722286128997803E+001
-6.5145630E-001	-3.852911567687988E+001
-6.0146779E-001	-2.803691864013672E+001
-6.6155094E-001	-3.935539817810059E+001
-6.1152434E-001	-2.883760452270508E+001
-6.7150056E-001	-4.016907119750977E+001
-6.2152356E-001	-2.963657093048096E+001
-6.8148071E-001	-4.097682571411133E+001
-6.3139677E-001	-3.042866230010986E+001
-6.9148374E-001	-4.178668212890625E+001
-6.4139599E-001	-3.123412227630615E+001
-7.0154023E-001	-4.261429786682129E+001
-6.5147156E-001	-3.204627037048340E+001
-7.1153945E-001	-4.343981361389160E+001
-6.6143644E-001	-3.287274360656738E+001
-7.2151577E-001	-4.428634071350098E+001
-6.7151201E-001	-3.371277236938477E+001
-7.3145390E-001	-4.514069938659668E+001
-6.8141580E-001	-3.455739402770996E+001
-7.4151808E-001	-4.600097846984863E+001
-6.9151431E-001	-3.541156005859375E+001
-7.5150585E-001	-4.685705757141113E+001
-7.0140660E-001	-3.625560188293457E+001
-7.6155084E-001	-4.771580696105957E+001
-7.1147454E-001	-3.710786056518555E+001
-7.7150804E-001	-4.856749153137207E+001
-7.2144705E-001	-3.795324134826660E+001
-7.8153783E-001	-4.942089462280273E+001
-7.3143482E-001	-3.879824066162109E+001
-7.9147214E-001	-5.028212928771973E+001
-7.4143785E-001	-3.965317344665527E+001
-8.0143321E-001	-5.114298439025879E+001
-7.5151348E-001	-4.050886726379395E+001
-8.1148207E-001	-5.200822448730469E+001
-7.6149356E-001	-4.137640380859375E+001
-8.2153475E-001	-5.288569831848145E+001
-7.7138591E-001	-4.224031448364258E+001
-8.3150727E-001	-5.375017738342285E+001
-7.8146535E-001	-4.309524345397949E+001
-8.4153324E-001	-5.460893058776855E+001
-7.9142636E-001	-4.393737792968750E+001
-8.5145992E-001	-5.544934272766113E+001
-8.0147904E-001	-4.476327705383301E+001
-8.6156607E-001	-5.626932144165039E+001
-8.1138283E-001	-4.556396293640137E+001
-8.7153089E-001	-5.706542396545410E+001
-8.2140112E-001	-4.634803199768066E+001
-8.8147670E-001	-5.785236167907715E+001
-8.3138508E-001	-4.710937118530273E+001
-8.9152932E-001	-5.862000465393066E+001
-8.4140718E-001	-4.786536216735840E+001
-9.0156674E-001	-5.937446403503418E+001
-8.5146755E-001	-4.860187339782715E+001
-9.1152400E-001	-6.012186241149902E+001
-8.6150497E-001	-4.934315872192383E+001
-9.2151940E-001	-6.086257171630859E+001
-8.7145835E-001	-5.006934928894043E+001
-9.3154538E-001	-6.158609199523926E+001
-8.8147283E-001	-5.077835845947266E+001
-9.4149494E-001	-6.230082702636719E+001
-8.9138806E-001	-5.146978950500488E+001
-9.5153612E-001	-6.299473953247070E+001
-9.0149420E-001	-5.214594268798828E+001
-9.6148574E-001	-6.367605400085449E+001
-9.1137511E-001	-5.280948829650879E+001
-9.7152698E-001	-6.434151077270508E+001
-9.2141628E-001	-5.345813560485840E+001
-9.8144221E-001	-6.500429153442383E+001
-9.3151861E-001	-5.410468101501465E+001
-9.9148339E-001	-6.566057968139648E+001
-9.4146442E-001	-5.475256347656250E+001
-1.0015209E+000	-6.632928085327148E+001
-9.5139873E-001	-5.540732383728027E+001
-1.0116270E+000	-6.702223968505859E+001
-9.6141702E-001	-5.607277870178223E+001
-1.0216490E+000	-6.770354843139648E+001
-9.7138953E-001	-5.674759674072266E+001
-1.0314957E+000	-6.839421844482422E+001
-9.8153383E-001	-5.743291664123535E+001
-1.0415711E+000	-6.909443664550781E+001
-9.9134213E-001	-5.811880874633789E+001
-1.0515589E+000	-6.977498245239258E+001
-1.0014559E+000	-5.880622863769531E+001
-1.0615238E+000	-7.045972824096680E+001
-1.0114514E+000	-5.947474098205566E+001
-1.0714924E+000	-7.113951110839844E+001
-1.0215575E+000	-6.013465881347656E+001
-1.0815718E+000	-7.182750701904297E+001
-1.0315032E+000	-6.081692123413086E+001
-1.0915138E+000	-7.252122879028320E+001
-1.0415368E+000	-6.150109672546387E+001
-1.1015856E+000	-7.321743392944336E+001
-1.0514978E+000	-6.220112609863281E+001
-1.1115161E+000	-7.394019317626953E+001
-1.0615047E+000	-6.292139434814453E+001
-1.1215038E+000	-7.468319702148438E+001
-1.0714734E+000	-6.364912033081055E+001
-1.1315757E+000	-7.543001556396484E+001
-1.0814458E+000	-6.439250564575195E+001
-1.1415138E+000	-7.619594192504883E+001
-1.0914108E+000	-6.515155410766602E+001
-1.1516047E+000	-7.695900344848633E+001
-1.1014673E+000	-6.591442489624023E+001
-1.1615657E+000	-7.773524093627930E+001
-1.1114589E+000	-6.668435287475586E+001
-1.1715190E+000	-7.852255630493164E+001
-1.1215841E+000	-6.745753860473633E+001
-1.1814992E+000	-7.932266616821289E+001
-1.1314000E+000	-6.825039672851563E+001
-1.1916131E+000	-8.013099670410156E+001
-1.1414641E+000	-6.906808090209961E+001
-1.2014557E+000	-8.096835708618164E+001
-1.1513946E+000	-6.991690063476563E+001
-1.2116191E+000	-8.184200668334961E+001
-1.1614702E+000	-7.079302978515625E+001
-1.2215916E+000	-8.274525833129883E+001
-1.1714542E+000	-7.170106124877930E+001