Ewe/V	<I>/mA	
1.2785546E+000	4.071838760375977E+001
1.3285240E+000	4.939696311950684E+001
1.2684981E+000	3.903502893447876E+001
1.3185210E+000	4.755588245391846E+001
1.2585104E+000	3.739106225967407E+001
1.3085523E+000	4.577649307250977E+001
1.2485416E+000	3.574929141998291E+001
1.2985340E+000	4.405340433120728E+001
1.2385005E+000	3.416100454330444E+001
1.2885348E+000	4.232253122329712E+001
1.2285738E+000	3.262786674499512E+001
1.2785317E+000	4.063095617294312E+001
1.2185974E+000	3.111072635650635E+001
1.2685095E+000	3.900174522399902E+001
1.2085333E+000	2.961407089233398E+001
1.2585677E+000	3.738227605819702E+001
1.1985799E+000	2.818288397789001E+001
1.2485837E+000	3.578835296630859E+001
1.1886113E+000	2.679295229911804E+001
1.2385730E+000	3.423105430603027E+001
1.1785737E+000	2.540831947326660E+001
1.2285508E+000	3.273439931869507E+001
1.1686052E+000	2.407143878936768E+001
1.2185478E+000	3.123077273368835E+001
1.1585219E+000	2.278746676445007E+001
1.2085600E+000	2.975469827651978E+001
1.1485838E+000	2.153142738342285E+001
1.1985685E+000	2.834896135330200E+001
1.1386036E+000	2.029888224601746E+001
1.1885768E+000	2.696566677093506E+001
1.1286197E+000	1.913041925430298E+001
1.1785929E+000	2.560343050956726E+001
1.1186090E+000	1.801352691650391E+001
1.1685593E+000	2.428455090522766E+001
1.1085830E+000	1.690871500968933E+001
1.1585945E+000	2.301810264587402E+001
1.0986564E+000	1.585280144214630E+001
1.1486219E+000	2.177572154998779E+001
1.0885808E+000	1.486240005493164E+001
1.1385845E+000	2.056561923027039E+001
1.0784937E+000	1.389988648891449E+001
1.1286006E+000	1.942222523689270E+001
1.0685365E+000	1.296635735034943E+001
1.1186205E+000	1.831397485733032E+001
1.0585067E+000	1.209924924373627E+001
1.1086594E+000	1.723074746131897E+001
1.0485114E+000	1.128356909751892E+001
1.0985457E+000	1.620572757720947E+001
1.0385426E+000	1.048746705055237E+001
1.0885388E+000	1.522268104553223E+001
1.0284632E+000	9.732669353485107E+000
1.0785166E+000	1.428790974617004E+001
1.0185404E+000	9.047349095344543E+000
1.0684907E+000	1.338083505630493E+001
1.0084610E+000	8.381797790527344E+000
1.0584762E+000	1.254233002662659E+001
9.9849987E-001	7.740026414394379E+000
1.0484847E+000	1.175105035305023E+001
9.8851210E-001	7.151449322700500E+000
1.0385541E+000	1.097958707809448E+001
9.7850144E-001	6.611339509487152E+000
1.0285282E+000	1.025663924217224E+001
9.6850604E-001	6.078487634658813E+000
1.0184487E+000	9.600590586662292E+000
9.5853353E-001	5.574763774871826E+000
1.0084839E+000	8.965695261955261E+000
9.4855344E-001	5.130012392997742E+000
9.9856097E-001	8.361026287078857E+000
9.3855035E-001	4.700541198253632E+000
9.8855793E-001	7.811223208904266E+000
9.2855877E-001	4.278805673122406E+000
9.7855872E-001	7.305780112743378E+000
9.1853285E-001	3.897897183895111E+000
9.6856713E-001	6.811224460601807E+000
9.0851837E-001	3.551846742630005E+000
9.5856404E-001	6.354296445846558E+000
8.9851910E-001	3.204984545707703E+000
9.4850379E-001	5.952186584472656E+000
8.8852370E-001	2.868388742208481E+000
9.3856943E-001	5.562539577484131E+000
8.7853593E-001	2.576439976692200E+000
9.2852443E-001	5.186071813106537E+000
8.6850995E-001	2.294757694005966E+000
9.1854048E-001	4.851338386535645E+000
8.5855657E-001	2.006676822900772E+000
9.0853357E-001	4.553611934185028E+000
8.4855735E-001	1.748774453997612E+000
8.9852673E-001	4.253497838973999E+000
8.3851230E-001	1.530266523361206E+000
8.8853514E-001	3.970860451459885E+000
8.2850927E-001	1.309944078326225E+000
8.7857789E-001	3.738170534372330E+000
8.1846803E-001	1.091245152056217E+000
8.6855960E-001	3.507486194372177E+000
8.0848783E-001	9.162383005023003E-001
8.5859096E-001	3.279189348220825E+000
7.9851156E-001	7.557476758956909E-001
8.4854972E-001	3.081644028425217E+000
7.8853905E-001	5.800722651183605E-001
8.3856577E-001	2.918479323387146E+000
7.7857804E-001	4.153796024620533E-001
8.2854742E-001	2.743997782468796E+000
7.6854825E-001	2.811041846871376E-001
8.1850618E-001	2.579734772443771E+000
7.5854135E-001	1.381381293758750E-001
8.0854136E-001	2.460548698902130E+000
7.4853832E-001	-1.370958850020543E-002
7.9851919E-001	2.350435167551041E+000
7.3855817E-001	-1.308424305170774E-001
7.8851235E-001	2.222176373004913E+000
7.2857046E-001	-2.283019199967384E-001
7.7850550E-001	2.119894027709961E+000
7.1858269E-001	-3.474402986466885E-001
7.6851773E-001	2.052995145320892E+000
7.0856434E-001	-4.629973471164703E-001
7.5856048E-001	1.970099642872810E+000
6.9854605E-001	-5.373931825160980E-001
7.4859941E-001	1.885389655828476E+000
6.8853152E-001	-6.244907453656197E-001
7.3853528E-001	1.832147434353828E+000
6.7859721E-001	-7.262955680489540E-001
7.2854370E-001	1.791941240429878E+000
6.6846818E-001	-8.100982680916786E-001
7.1855211E-001	1.728002846240997E+000
6.5840405E-001	-8.727474212646484E-001
7.0860636E-001	1.678294181823730E+000
6.4848500E-001	-9.562158733606339E-001
6.9850785E-001	1.655517041683197E+000
6.3849723E-001	-1.045032486319542E+000
6.8853152E-001	1.619751662015915E+000
6.2847513E-001	-1.102620027959347E+000
6.7860103E-001	1.567082479596138E+000
6.1847585E-001	-1.164409607648849E+000
6.6848731E-001	1.539530217647552E+000
6.0848045E-001	-1.245872601866722E+000
6.5847278E-001	1.524584189057350E+000
5.9852326E-001	-1.315397799015045E+000
6.4851552E-001	1.480844393372536E+000
5.8849728E-001	-1.359567373991013E+000
6.3850105E-001	1.438680365681648E+000
5.7852858E-001	-1.425750032067299E+000
6.2853622E-001	1.422827050089836E+000
5.6853700E-001	-1.505350694060326E+000
6.1847204E-001	1.396182134747505E+000
5.5848432E-001	-1.560073137283325E+000
6.0853004E-001	1.349768280982971E+000
5.4857290E-001	-1.606725752353668E+000
5.9847742E-001	1.335395276546478E+000
5.3853935E-001	-1.685944363474846E+000
5.8850873E-001	1.345804974436760E+000
5.2853632E-001	-1.765927061438560E+000
5.7850951E-001	1.336445763707161E+000
5.1850653E-001	-1.815874487161636E+000
5.6848353E-001	1.321261003613472E+000
5.0856841E-001	-1.882630169391632E+000
5.5849195E-001	1.334917783737183E+000
4.9853095E-001	-1.973022595047951E+000
5.4850799E-001	1.312474846839905E+000
4.8854703E-001	-2.037199690937996E+000
5.3847826E-001	1.228337854146957E+000
4.7854397E-001	-2.093115881085396E+000
5.2848667E-001	1.175095632672310E+000
4.6856001E-001	-2.194204479455948E+000
5.1848364E-001	1.207327499985695E+000
4.5856079E-001	-2.289180874824524E+000
5.0847298E-001	1.194005012512207E+000
4.4855773E-001	-2.324516534805298E+000
4.9859202E-001	1.126151025295258E+000
4.3855470E-001	-2.373508960008621E+000
4.8852029E-001	1.066844508051872E+000
4.2855549E-001	-2.501051455736160E+000
4.7855160E-001	1.000996075570583E+000
4.1853333E-001	-2.637618899345398E+000
4.6856001E-001	9.075476378202438E-001
4.0853032E-001	-2.758380800485611E+000
4.5845005E-001	8.209753632545471E-001
3.9853108E-001	-2.903734356164932E+000
4.4857681E-001	7.624805271625519E-001
3.8853565E-001	-3.068188279867172E+000
4.3850887E-001	6.790120229125023E-001
3.7859371E-001	-3.195778608322144E+000
4.2850202E-001	5.714771151542664E-001
3.6854103E-001	-3.338601380586624E+000
4.1854861E-001	4.866716079413891E-001
3.5853419E-001	-3.514085799455643E+000
4.0853792E-001	4.061636738479137E-001
3.4856930E-001	-3.676820605993271E+000
3.9857689E-001	2.967187073081732E-001
3.3858535E-001	-3.822365194559097E+000
3.8852802E-001	1.848384533077478E-001
3.2857084E-001	-3.995318830013275E+000
3.7857842E-001	9.669038769789040E-002
3.1857163E-001	-4.186895251274109E+000
3.6857921E-001	-3.634159336797893E-003
3.0856094E-001	-4.349295914173126E+000
3.5861433E-001	-1.296964124776423E-001
2.9857698E-001	-4.505011439323425E+000
3.4861511E-001	-2.278244141489267E-001
2.8856632E-001	-4.692576706409454E+000
3.3865026E-001	-3.085233550518751E-001
2.7857089E-001	-4.869589328765869E+000
3.2862812E-001	-4.092776551842690E-001
2.6855642E-001	-5.012937366962433E+000
3.1865183E-001	-5.046361200511456E-001
2.5859153E-001	-5.165023803710938E+000
3.0857620E-001	-5.629398897290230E-001
2.4847014E-001	-5.338980078697205E+000
2.9869536E-001	-6.281675472855568E-001
2.3849000E-001	-5.467525362968445E+000
2.8870758E-001	-7.077204808592796E-001
2.2850223E-001	-5.562740683555603E+000
2.7868927E-001	-7.576201185584068E-001
2.1849537E-001	-5.675814688205719E+000
2.6864806E-001	-7.873688712716103E-001
2.0846559E-001	-5.771077573299408E+000
2.5868699E-001	-8.347854912281036E-001
1.9855037E-001	-5.810901761054993E+000
2.4858850E-001	-8.876456916332245E-001
1.8849006E-001	-5.837499022483826E+000
2.3855491E-001	-8.970048427581787E-001
1.7843357E-001	-5.876750171184540E+000
2.2852132E-001	-9.020186811685562E-001
1.6852596E-001	-5.865194439888000E+000
2.1860991E-001	-9.235065877437592E-001
1.5851147E-001	-5.819401323795319E+000
2.0859160E-001	-9.188747480511665E-001
1.4847788E-001	-5.784352362155914E+000
1.9851218E-001	-8.826318532228470E-001
1.3849011E-001	-5.740660250186920E+000
1.8860459E-001	-8.661100566387177E-001
1.2848707E-001	-5.647259414196014E+000
1.7864355E-001	-8.558436110615730E-001
1.1849547E-001	-5.547937810420990E+000
1.6852978E-001	-8.136795982718468E-001
1.0851915E-001	-5.474353671073914E+000
1.5859166E-001	-7.687460631132126E-001
9.8542832E-002	-5.375079631805420E+000
1.4866115E-001	-7.506007254123688E-001
8.8543609E-002	-5.248396694660187E+000
1.3857411E-001	-7.212339490652084E-001
7.8510024E-002	-5.145063817501068E+000
1.2863979E-001	-6.642194315791130E-001
6.8529882E-002	-5.059780895709991E+000
1.1859092E-001	-6.284063011407852E-001
5.8507752E-002	-4.941549718379974E+000
1.0860696E-001	-6.086852028965950E-001
4.8527613E-002	-4.825944960117340E+000
9.8558106E-002	-5.648021772503853E-001
3.8482577E-002	-4.748779475688934E+000
8.8543616E-002	-5.141862668097019E-001
2.8597886E-002	-4.662541508674622E+000
7.8655109E-002	-4.919343814253807E-001
1.8503211E-002	-4.558396935462952E+000
6.8541341E-002	-4.722132720053196E-001
8.5498011E-003	-4.477936685085297E+000
5.8591746E-002	-4.234596453607082E-001
-1.3921548E-003	-4.430519998073578E+000
4.8539069E-002	-3.954298906028271E-001
-1.1475375E-002	-4.352304220199585E+000
3.8654383E-002	-3.875032551586628E-001
-2.1520413E-002	-4.273467481136322E+000
2.8597886E-002	-3.637710846960545E-001
-3.1450916E-002	-4.235696613788605E+000
1.8613933E-002	-3.232783675193787E-001
-4.1503590E-002	-4.196922898292542E+000
8.6490680E-003	-3.132506906986237E-001
-5.1537178E-002	-4.132220566272736E+000
-1.3730652E-003	-3.119136597961187E-001
-6.1475318E-002	-4.091918647289276E+000
-1.1437194E-002	-2.831676509231329E-001
-7.1489811E-002	-4.080124408006668E+000
-2.1440238E-002	-2.635420523583889E-001
-8.1408866E-002	-4.050471037626266E+000
-3.1389829E-002	-2.706091701984406E-001
-9.1381356E-002	-4.006635755300522E+000
-4.1419595E-002	-2.618230208754539E-001
-1.0151803E-001	-4.000141710042953E+000
-5.1384464E-002	-2.370403278619051E-001
-1.1147907E-001	-4.004343658685684E+000
-6.1402775E-002	-2.381863445043564E-001
-1.2144012E-001	-3.981709957122803E+000
-7.1459271E-002	-2.508880719542503E-001
-1.3143171E-001	-3.962084263563156E+000
-8.1374496E-002	-2.336500175297260E-001
-1.4136603E-001	-3.980993658304214E+000
-9.1396630E-002	-2.223808094859123E-001
-1.5139963E-001	-3.986819058656693E+000
-1.0138059E-001	-2.383773513138294E-001
-1.6144846E-001	-3.977316796779633E+000
-1.1141799E-001	-2.434866912662983E-001
-1.7156604E-001	-4.006683588027954E+000
-1.2140958E-001	-2.280154135078192E-001
-1.8143165E-001	-4.048608690500259E+000
-1.3145462E-001	-2.357033062726259E-001
-1.9154541E-001	-4.069284975528717E+000
-1.4140038E-001	-2.603427413851023E-001
-2.0154464E-001	-4.106817066669464E+000
-1.5135381E-001	-2.672666218131781E-001
-2.1148278E-001	-4.193866908550262E+000
-1.6141030E-001	-2.732354756444693E-001
-2.2152399E-001	-4.286789953708649E+000
-1.7147061E-001	-3.164977449923754E-001
-2.3150031E-001	-4.382864773273468E+000
-1.8145074E-001	-3.672091439366341E-001
-2.4144991E-001	-4.537625193595886E+000
-1.9140033E-001	-4.022582694888115E-001
-2.5146443E-001	-4.756849408149719E+000
-2.0140719E-001	-4.741710498929024E-001
-2.6151708E-001	-5.004819691181183E+000
-2.1147132E-001	-5.853827893733978E-001
-2.7150485E-001	-5.305602312088013E+000
-2.2141328E-001	-6.989820525050163E-001
-2.8151935E-001	-5.718742668628693E+000
-2.3139723E-001	-8.355017527937889E-001
-2.9144222E-001	-6.196203351020813E+000
-2.4137354E-001	-1.073157742619514E+000
-3.0148345E-001	-6.716878652572632E+000
-2.5148731E-001	-1.379145190119743E+000
-3.1144831E-001	-7.319112420082092E+000
-2.6151326E-001	-1.832491725683212E+000
-3.2152772E-001	-7.994930267333984E+000
-2.7152014E-001	-2.333971142768860E+000
-3.3145818E-001	-8.684739112854004E+000
-2.8149262E-001	-2.892751693725586E+000
-3.4149179E-001	-9.385339617729187E+000
-2.9151475E-001	-3.462467104196548E+000
-3.5150629E-001	-1.012237417697906E+001
-3.0155981E-001	-4.029985964298248E+000
-3.6143678E-001	-1.084938097000122E+001
-3.1152847E-001	-4.626967072486877E+000
-3.7145510E-001	-1.151498007774353E+001
-3.2146278E-001	-5.232447862625122E+000
-3.8153449E-001	-1.215321755409241E+001
-3.3150783E-001	-5.787981390953064E+000
-3.9140010E-001	-1.276471519470215E+001
-3.4148031E-001	-6.308131337165833E+000
-4.0145659E-001	-1.329231405258179E+001
-3.5144901E-001	-6.819065451622009E+000
-4.1145200E-001	-1.373491692543030E+001
-3.6141771E-001	-7.273796975612640E+000
-4.2145121E-001	-1.414036917686462E+001
-3.7142074E-001	-7.642146766185761E+000
-4.3153062E-001	-1.449176776409149E+001
-3.8145432E-001	-7.985952854156494E+000
-4.4147640E-001	-1.475138950347900E+001
-3.9142683E-001	-8.298816561698914E+000
-4.5140308E-001	-1.495843672752380E+001
-4.0151006E-001	-8.539242386817932E+000
-4.6142522E-001	-1.516218996047974E+001
-4.1144055E-001	-8.726759672164917E+000
-4.7156954E-001	-1.530692255496979E+001
-4.2138633E-001	-8.920294165611267E+000
-4.8145804E-001	-1.539917719364166E+001
-4.3139699E-001	-9.080020308494568E+000
-4.9144199E-001	-1.550298726558685E+001
-4.4141531E-001	-9.184165239334106E+000
-5.0136864E-001	-1.559476482868195E+001
-4.5142597E-001	-9.278998255729675E+000
-5.1140225E-001	-1.564924860000610E+001
-4.6149775E-001	-9.388824939727783E+000
-5.2142823E-001	-1.568639862537384E+001
-4.7140917E-001	-9.452668309211731E+000
-5.3145415E-001	-1.574799728393555E+001
-4.8138931E-001	-9.484661102294922E+000
-5.4146862E-001	-1.578395318984985E+001
-4.9143437E-001	-9.535420536994934E+000
-5.5142587E-001	-1.577874839305878E+001
-5.0139540E-001	-9.575292468070984E+000
-5.6143653E-001	-1.579063832759857E+001
-5.1143277E-001	-9.565742254257202E+000
-5.7140523E-001	-1.581670987606049E+001
-5.2137095E-001	-9.553088307380676E+000
-5.8146173E-001	-1.580300557613373E+001
-5.3149235E-001	-9.565407872200012E+000
-5.9149915E-001	-1.578457391262054E+001
-5.4152215E-001	-9.543538212776184E+000
-6.0145253E-001	-1.579059100151062E+001
-5.5141443E-001	-9.496360182762146E+000
-6.1152428E-001	-1.578977882862091E+001
-5.6140983E-001	-9.473821878433228E+000
-6.2159228E-001	-1.575874066352844E+001
-5.7143581E-001	-9.465799927711487E+000
-6.3146168E-001	-1.574255311489105E+001
-5.8142740E-001	-9.418383002281189E+000
-6.4147997E-001	-1.575515949726105E+001
-5.9139991E-001	-9.381185054779053E+000
-6.5143722E-001	-1.573830354213715E+001
-6.0145640E-001	-9.375455260276794E+000
-6.6148603E-001	-1.570974886417389E+001
-6.1147469E-001	-9.349096536636353E+000
-6.7154258E-001	-1.571953737735748E+001
-6.2152356E-001	-9.298432707786560E+000
-6.8149215E-001	-1.573615491390228E+001
-6.3151127E-001	-9.270832777023315E+000
-6.9151813E-001	-1.571839165687561E+001
-6.4148378E-001	-9.276324152946472E+000
-7.0152116E-001	-1.571347320079803E+001
-6.5148687E-001	-9.239794611930847E+000
-7.1152419E-001	-1.574532282352448E+001
-6.6158146E-001	-9.205748677253723E+000
-7.2154635E-001	-1.575601899623871E+001
-6.7155021E-001	-9.210284829139709E+000
-7.3149973E-001	-1.573801720142365E+001
-6.8150359E-001	-9.208756923675537E+000
-7.4147218E-001	-1.575124418735504E+001
-6.9141883E-001	-9.172752618789673E+000
-7.5137985E-001	-1.578500390052795E+001
-7.0157075E-001	-9.158761858940125E+000
-7.6145923E-001	-1.577440309524536E+001
-7.1140587E-001	-9.172418475151062E+000
-7.7143937E-001	-1.576046001911163E+001
-7.2146618E-001	-9.154368758201599E+000
-7.8148443E-001	-1.578739130496979E+001
-7.3154557E-001	-9.119414925575256E+000
-7.9151422E-001	-1.579102051258087E+001
-7.4150276E-001	-9.117123126983643E+000
-8.0144846E-001	-1.576384985446930E+001
-7.5147146E-001	-9.119367241859436E+000
-8.1147444E-001	-1.577287518978119E+001
-7.6150507E-001	-9.085225462913513E+000
-8.2153094E-001	-1.579980671405792E+001
-7.7140117E-001	-9.062734842300415E+000
-8.3144236E-001	-1.578548121452332E+001
-7.8146148E-001	-9.079304218292236E+000
-8.4145683E-001	-1.577922582626343E+001
-7.9140723E-001	-9.073860645294189E+000
-8.5147899E-001	-1.581312870979309E+001
-8.0147904E-001	-9.051369905471802E+000
-8.6153543E-001	-1.584225666522980E+001
-8.1142479E-001	-9.071759581565857E+000
-8.7150413E-001	-1.584345078468323E+001
-8.2145458E-001	-9.110199213027954E+000
-8.8151485E-001	-1.587463200092316E+001
-8.3152252E-001	-9.118077874183655E+000
-8.9146441E-001	-1.594186568260193E+001
-8.4146070E-001	-9.139948129653931E+000
-9.0149802E-001	-1.598140287399292E+001
-8.5147518E-001	-9.211144328117371E+000
-9.1143233E-001	-1.602456974983215E+001
-8.6151260E-001	-9.276228904724121E+000
-9.2141628E-001	-1.612475168704987E+001
-8.7145835E-001	-9.332002043724060E+000
-9.3138880E-001	-1.625033617019653E+001
-8.8143468E-001	-9.434236407279968E+000
-9.4141853E-001	-1.636575031280518E+001
-8.9147973E-001	-9.580736041069031E+000
-9.5154762E-001	-1.651984238624573E+001
-9.0146369E-001	-9.708755970001221E+000
-9.6139407E-001	-1.673854112625122E+001
-9.1147429E-001	-9.862704515457153E+000
-9.7147733E-001	-1.696039104461670E+001
-9.2147356E-001	-1.006937062740326E+001
-9.8148799E-001	-1.717780137062073E+001
-9.3149185E-001	-1.028143191337585E+001
-9.9143761E-001	-1.745475625991821E+001
-9.4141090E-001	-1.047902488708496E+001
-1.0014254E+000	-1.774770760536194E+001
-9.5136434E-001	-1.071181035041809E+001
-1.0115621E+000	-1.802633309364319E+001
-9.6141702E-001	-1.097424912452698E+001
-1.0214772E+000	-1.828729200363159E+001
-9.7138953E-001	-1.120302331447601E+001
-1.0315796E+000	-1.857647109031677E+001
-9.8145366E-001	-1.141623067855835E+001
-1.0415254E+000	-1.881828188896179E+001
-9.9139559E-001	-1.165679979324341E+001
-1.0514711E+000	-1.900369787216187E+001
-1.0014597E+000	-1.188414156436920E+001
-1.0614818E+000	-1.917397737503052E+001
-1.0114552E+000	-1.203675341606140E+001
-1.0714390E+000	-1.932806944847107E+001
-1.0214772E+000	-1.217375040054321E+001
-1.0814383E+000	-1.939248585700989E+001
-1.0314536E+000	-1.230401480197906E+001
-1.0915139E+000	-1.941698145866394E+001
-1.0414566E+000	-1.236900389194489E+001
-1.1015742E+000	-1.944066596031189E+001
-1.0515436E+000	-1.238060736656189E+001
-1.1115695E+000	-1.942500352859497E+001
-1.0615085E+000	-1.239755892753601E+001
-1.1215038E+000	-1.935036945343018E+001
-1.0715307E+000	-1.239225828647614E+001
-1.1314267E+000	-1.928050994873047E+001
-1.0814955E+000	-1.233037340641022E+001
-1.1415596E+000	-1.923013305664063E+001
-1.0915673E+000	-1.225678920745850E+001
-1.1514100E+000	-1.912913966178894E+001
-1.1015016E+000	-1.221171247959137E+001
-1.1614130E+000	-1.901735472679138E+001
-1.1114435E+000	-1.213278031349182E+001
-1.1714771E+000	-1.894372367858887E+001
-1.1215305E+000	-1.201789176464081E+001
-1.1814266E+000	-1.886474347114563E+001
-1.1314955E+000	-1.194435548782349E+001
-1.1915289E+000	-1.875806832313538E+001
-1.1414986E+000	-1.188915526866913E+001
-1.2015053E+000	-1.867378735542297E+001
-1.1514443E+000	-1.178864026069641E+001
-1.2114816E+000	-1.862985682487488E+001
-1.1614817E+000	-1.170020556449890E+001
-1.2214274E+000	-1.856314897537231E+001
-1.1715649E+000	-1.166190934181213E+001