Ewe/V	<I>/mA	
1.2788451E+000	3.870788574218750E+001
1.3288031E+000	4.675849781679290E+001
1.2688345E+000	3.653505261024731E+001
1.3188726E+000	4.441389388180846E+001
1.2588009E+000	3.445040164904648E+001
1.3087970E+000	4.218131890457664E+001
1.2488130E+000	3.242951875322319E+001
1.2988436E+000	3.999906917100542E+001
1.2388520E+000	3.052014068003444E+001
1.2887604E+000	3.791922279957964E+001
1.2287995E+000	2.869552715172927E+001
1.2788336E+000	3.593146870645242E+001
1.2187772E+000	2.698572836029393E+001
1.2688383E+000	3.402245656559973E+001
1.2088697E+000	2.532936479804221E+001
1.2588735E+000	3.219416046142578E+001
1.1988056E+000	2.376434499762031E+001
1.2488856E+000	3.042721576904982E+001
1.1889094E+000	2.224517781546945E+001
1.2388444E+000	2.871230974090230E+001
1.1788262E+000	2.082358973213795E+001
1.2288719E+000	2.706737102551406E+001
1.1688803E+000	1.946140345026936E+001
1.2188307E+000	2.550521614846218E+001
1.1588850E+000	1.818420030829612E+001
1.2088772E+000	2.401087392314096E+001
1.1487826E+000	1.696471074993690E+001
1.1989048E+000	2.259312503257490E+001
1.1388102E+000	1.583685160219000E+001
1.1888216E+000	2.125062873926055E+001
1.1288071E+000	1.475987007912624E+001
1.1788834E+000	1.995196923245205E+001
1.1188117E+000	1.375099056758233E+001
1.1688536E+000	1.872960420672808E+001
1.1088430E+000	1.280073779888363E+001
1.1588163E+000	1.756796262505349E+001
1.0988553E+000	1.191978225279388E+001
1.1487826E+000	1.647713275437944E+001
1.0888904E+000	1.109408124645103E+001
1.1388904E+000	1.544290679760189E+001
1.0787346E+000	1.031340143653783E+001
1.1288720E+000	1.446463494890191E+001
1.0686972E+000	9.592854328369825E+000
1.1188613E+000	1.353705378328814E+001
1.0587515E+000	8.916183343094374E+000
1.1088088E+000	1.265911190161544E+001
1.0487522E+000	8.278519426838727E+000
1.0989048E+000	1.182981337858050E+001
1.0387225E+000	7.690211955081196E+000
1.0887873E+000	1.103852240958909E+001
1.0288073E+000	7.139422154158666E+000
1.0788187E+000	1.030201809058028E+001
1.0188385E+000	6.621751597758077E+000
1.0687889E+000	9.603674985049814E+000
1.0087515E+000	6.140414254049237E+000
1.0588278E+000	8.946683765797125E+000
9.9879044E-001	5.685439929533530E+000
1.0487140E+000	8.330583465233275E+000
9.8882562E-001	5.268404537372373E+000
1.0387874E+000	7.752264617534166E+000
9.7875005E-001	4.872525177644878E+000
1.0287881E+000	7.208883253376133E+000
9.6881950E-001	4.505113928505537E+000
1.0188271E+000	6.693650615349242E+000
9.5880502E-001	4.158498892623385E+000
1.0088240E+000	6.216764192902616E+000
9.4881725E-001	3.841339515836040E+000
9.9884009E-001	5.767957424849584E+000
9.3882561E-001	3.540201939893571E+000
9.8881036E-001	5.347346654099013E+000
9.2887604E-001	3.264457488327883E+000
9.7881109E-001	4.956377859865668E+000
9.1880429E-001	3.001773196659727E+000
9.6882331E-001	4.588110495149419E+000
9.0884703E-001	2.759752809331658E+000
9.5871335E-001	4.248386324121707E+000
8.9885545E-001	2.530946276161108E+000
9.4879431E-001	3.925023962942397E+000
8.8876075E-001	2.319705180907512E+000
9.3882185E-001	3.624839579121449E+000
8.7882644E-001	2.119617668430454E+000
9.2879200E-001	3.337707717766921E+000
8.6886162E-001	1.934636776366929E+000
9.1876608E-001	3.077144638875897E+000
8.5883182E-001	1.762153014708100E+000
9.0891576E-001	2.824835533506415E+000
8.4876382E-001	1.601838432001262E+000
8.9880586E-001	2.596416910042922E+000
8.3890593E-001	1.454667461052369E+000
8.8888294E-001	2.375200676114368E+000
8.2880741E-001	1.316837284002411E+000
8.7894100E-001	2.175303751163266E+000
8.1872422E-001	1.192362304483906E+000
8.6886925E-001	1.983785433715649E+000
8.0887008E-001	1.076228773995730E+000
8.5881656E-001	1.810100957248984E+000
7.9887080E-001	9.733037653933732E-001
8.4877533E-001	1.645052569635798E+000
7.8886020E-001	8.755928505672497E-001
8.3883721E-001	1.496842441933879E+000
7.7875406E-001	7.923629980408737E-001
8.2886088E-001	1.358482980996035E+000
7.6888460E-001	7.122162459941386E-001
8.1884634E-001	1.233884424306032E+000
7.5880522E-001	6.444615252901995E-001
8.0878985E-001	1.119299565808156E+000
7.4879074E-001	5.787134344658149E-001
7.9883647E-001	1.015123240063699E+000
7.3889077E-001	5.248543579926648E-001
7.8889835E-001	9.211882734566572E-001
7.2888392E-001	4.696912986508908E-001
7.7888381E-001	8.365673228596009E-001
7.1883124E-001	4.263464205720451E-001
7.6891518E-001	7.598482879360065E-001
7.0880526E-001	3.801592176549882E-001
7.5877851E-001	6.886705695913076E-001
6.9880992E-001	3.425208038828346E-001
7.4886709E-001	6.272747449660567E-001
6.8885654E-001	3.035320723324677E-001
7.3886025E-001	5.686389033714025E-001
6.7886114E-001	2.728144245201282E-001
7.2881907E-001	5.187204466776901E-001
6.6876251E-001	2.404236996106883E-001
7.1881211E-001	4.703172046816739E-001
6.5875953E-001	2.147069226824829E-001
7.0885873E-001	4.305155240417864E-001
6.4879084E-001	1.886789457181863E-001
6.9888246E-001	3.910915640632755E-001
6.3886034E-001	1.681643252292375E-001
6.8880302E-001	3.613722722851822E-001
6.2878859E-001	1.484875365924299E-001
6.7877716E-001	3.282707383793388E-001
6.1876267E-001	1.317522088798244E-001
6.6887712E-001	3.036291703079517E-001
6.0879785E-001	1.158495679330289E-001
6.5878630E-001	2.775410996394211E-001
5.9882146E-001	1.002963054715917E-001
6.4883292E-001	2.588013047247788E-001
5.8876497E-001	8.766261446342039E-002
6.3881075E-001	2.368509466393610E-001
5.7876199E-001	7.251067999541072E-002
6.2871605E-001	2.218196204539091E-001
5.6880474E-001	6.063327180703033E-002
6.1879700E-001	2.042215505007947E-001
5.5881310E-001	4.588223014319881E-002
6.0876727E-001	1.931347637698888E-001
5.4879487E-001	3.341507254524173E-002
5.9884435E-001	1.779446293798724E-001
5.3887188E-001	1.820948562490637E-002
5.8879554E-001	1.703989189327432E-001
5.2885354E-001	7.400840255981200E-003
5.7889175E-001	1.581704057334514E-001
5.1884675E-001	-7.199974555333846E-003
5.6885052E-001	1.523372952857713E-001
5.0870621E-001	-1.888466202863232E-002
5.5881310E-001	1.436713153726599E-001
4.9894375E-001	-3.564102495654248E-002
5.4889411E-001	1.380871536858966E-001
4.8874980E-001	-4.806354277756777E-002
5.3882229E-001	1.303869146811825E-001
4.7879255E-001	-6.640330212337253E-002
5.2874291E-001	1.235623101839858E-001
4.6883529E-001	-7.792316896192153E-002
5.1882005E-001	1.180124827817584E-001
4.5883614E-001	-9.651703102869935E-002
5.0894290E-001	1.109603786568963E-001
4.4885984E-001	-1.054474001520136E-001
4.9889028E-001	1.053590399495671E-001
4.3881094E-001	-1.213925374525320E-001
4.8877659E-001	9.525088597549458E-002
4.2875445E-001	-1.364517684900359E-001
4.7886899E-001	8.755494419778320E-002
4.1873613E-001	-1.589549779891968E-001
4.6882388E-001	7.613337148776211E-002
4.0888199E-001	-1.767255920037796E-001
4.5888191E-001	7.373402493723313E-002
3.9884076E-001	-1.973629674215003E-001
4.4886747E-001	5.902891082877515E-002
3.8888359E-001	-2.144966004939564E-001
4.3875748E-001	5.795585636175071E-002
3.7886146E-001	-2.387342955289267E-001
4.2881560E-001	5.067626625466870E-002
3.6885461E-001	-2.690283023239521E-001
4.1882774E-001	4.584752902221145E-002
3.5890874E-001	-2.956005351597004E-001
4.0879041E-001	3.314258185414115E-002
3.4882936E-001	-3.179419298520250E-001
3.9885986E-001	2.642527119036797E-002
3.3889118E-001	-3.356043612689117E-001
3.8890266E-001	1.581921641390477E-002
3.2891110E-001	-3.509026497937322E-001
3.7888435E-001	1.153559002925880E-002
3.1883550E-001	-3.606507135241221E-001
3.6877817E-001	2.946874945868573E-003
3.0887446E-001	-3.679946841818564E-001
3.5889345E-001	1.002503289210640E-003
2.9887903E-001	-3.682002636154049E-001
3.4887901E-001	-4.628879048866798E-003
2.8881115E-001	-3.688719965768676E-001
3.3881870E-001	-4.894995898661714E-003
2.7894935E-001	-3.614168753114979E-001
3.2887673E-001	-8.448947430408457E-003
2.6888525E-001	-3.566288907876176E-001
3.1885460E-001	-7.380186717792447E-003
2.5898525E-001	-3.443257159061646E-001
3.0894321E-001	-8.775156017558341E-003
2.4875313E-001	-3.360232734278348E-001
2.9894015E-001	-6.036724291252654E-003
2.3881117E-001	-3.214516646406624E-001
2.8891414E-001	-5.564581077226072E-003
2.2879291E-001	-3.122010843807392E-001
2.7891877E-001	-4.161028079283056E-003
2.1891961E-001	-2.965010428026822E-001
2.6888525E-001	-4.032261508992441E-003
2.0883261E-001	-2.873852289794538E-001
2.5888214E-001	-1.950538526155093E-003
1.9887541E-001	-2.736694558282919E-001
2.4873792E-001	-1.851817761061275E-003
1.8886849E-001	-2.663495257664263E-001
2.3873487E-001	-1.392550901686407E-003
1.7881586E-001	-2.535647530569127E-001
2.2877754E-001	9.896264125702874E-004
1.6886622E-001	-2.483376947681561E-001
2.1882416E-001	5.904508997742449E-004
1.5882879E-001	-2.384939287485706E-001
2.0889367E-001	3.161485479906551E-003
1.4887922E-001	-2.343987325269188E-001
1.9883336E-001	1.126976938149107E-003
1.3886088E-001	-2.266598658615284E-001
1.8885329E-001	3.101394760776886E-003
1.2883495E-001	-2.233162460367333E-001
1.7877001E-001	6.505416040249908E-004
1.1886629E-001	-2.177346566419924E-001
1.6879754E-001	2.358841884987861E-003
1.0889381E-001	-2.159619696354600E-001
1.5885937E-001	-4.482646341948367E-004
9.8936558E-002	-2.124135984798503E-001
1.4885251E-001	2.066971795643899E-003
8.8834263E-002	-2.103619128465652E-001
1.3887617E-001	-1.362505735302335E-003
7.8880802E-002	-2.086347272891680E-001
1.2894569E-001	3.415024773939773E-004
6.8839587E-002	-2.070448947756480E-001
1.1893116E-001	-3.362676568327373E-003
5.8943473E-002	-2.068049666586891E-001
1.0886324E-001	-2.675922521621549E-003
4.8841178E-002	-2.047953595606129E-001
9.8856322E-002	-5.873620254216533E-003
3.8925901E-002	-2.058396428153761E-001
8.8948801E-002	-5.251249711547869E-003
2.8770139E-002	-2.038163033764016E-001
7.8842625E-002	-8.268674668460943E-003
1.8984763E-002	-2.057589464977887E-001
6.8885446E-002	-8.264382188407887E-003
8.9970073E-003	-2.036463228169456E-001
5.8954954E-002	-1.132472935446616E-002
-1.1167708E-003	-2.075097393453791E-001
4.8955638E-002	-1.243212060969169E-002
-1.1104602E-002	-2.045760204952760E-001
3.8819045E-002	-1.421768060431483E-002
-2.1122932E-002	-2.088197285539650E-001
2.8961111E-002	-1.539803898155565E-002
-3.1034330E-002	-2.065259750639461E-001
1.8870225E-002	-1.705054012702757E-002
-4.1140426E-002	-2.102812320998546E-001
8.8938773E-003	-2.018385600780004E-002
-5.1151153E-002	-2.088223081291392E-001
-1.1358606E-003	-2.014522563163823E-002
-6.1093047E-002	-2.121736670143151E-001
-1.1089316E-002	-2.376785250694569E-002
-7.1183935E-002	-2.108439270699964E-001
-2.1138145E-002	-2.352748886064704E-002
-8.1183173E-002	-2.145275090182768E-001
-3.1076312E-002	-2.730034240469170E-002
-9.1105983E-002	-2.131295406751423E-001
-4.1174803E-002	-2.633030224968214E-002
-1.0107084E-001	-2.158078747184091E-001
-5.1154952E-002	-3.023621547716054E-002
-1.1111214E-001	-2.173947008808010E-001
-6.1073959E-002	-2.970827287167649E-002
-1.2096620E-001	-2.196378218993713E-001
-7.1000718E-002	-3.438678440334425E-002
-1.3103418E-001	-2.227870085266199E-001
-8.1160285E-002	-3.207328172630809E-002
-1.4101434E-001	-2.266435618146082E-001
-9.1025889E-002	-3.642129178127548E-002
-1.5100209E-001	-2.335922232504641E-001
-1.0106324E-001	-3.532248846349428E-002
-1.6103572E-001	-2.413345103183491E-001
-1.1108917E-001	-4.004392140869351E-002
-1.7112659E-001	-2.562525198700722E-001
-1.2102734E-001	-3.976063386359244E-002
-1.8114485E-001	-2.726260396871674E-001
-1.3109146E-001	-4.445202286574948E-002
-1.9117460E-001	-3.027728099501541E-001
-1.4100292E-001	-4.711748404281879E-002
-2.0148356E-001	-3.407867765158752E-001
-1.5138815E-001	-5.384338069497874E-002
-2.1152097E-001	-4.030706185973099E-001
-1.6145611E-001	-6.073667263884230E-002
-2.2152781E-001	-4.842586400133841E-001
-1.7152023E-001	-7.268619051810066E-002
-2.3156522E-001	-6.022279691160399E-001
-1.8148892E-001	-8.803943042339912E-002
-2.4149573E-001	-7.486618737156472E-001
-1.9148433E-001	-1.078351065516472E-001
-2.5154078E-001	-9.355318773998320E-001
-2.0151028E-001	-1.501010632916784E-001
-2.6145598E-001	-1.144038449512439E+000
-2.1146750E-001	-1.960029548473576E-001
-2.7151629E-001	-1.372847664222289E+000
-2.2152400E-001	-2.535906641670831E-001
-2.8157279E-001	-1.589526617125181E+000
-2.3148887E-001	-3.232441795675944E-001
-2.9149950E-001	-1.789139321680821E+000
-2.4153009E-001	-4.096463463279640E-001
-3.0149108E-001	-1.947006852439284E+000
-2.5144914E-001	-4.933757450473444E-001
-3.1152466E-001	-2.069203130314859E+000
-2.6147890E-001	-5.844290196225885E-001
-3.2140934E-001	-2.150640543926968E+000
-2.7156594E-001	-6.717857859107887E-001
-3.3149254E-001	-2.203331044550694E+000
-2.8150409E-001	-7.634575628162779E-001
-3.4146506E-001	-2.230884774347370E+000
-2.9143840E-001	-8.456370750170077E-001
-3.5150245E-001	-2.240422026494917E+000
-3.0153689E-001	-9.281153297156450E-001
-3.6147493E-001	-2.234661421079316E+000
-3.1137958E-001	-9.954357100336741E-001
-3.7148947E-001	-2.212973350889227E+000
-3.2143608E-001	-1.057641404398373E+000
-3.8146198E-001	-2.178847813874150E+000
-3.3149639E-001	-1.101375657520940E+000
-3.9142302E-001	-2.131841155920137E+000
-3.4146506E-001	-1.137890368365172E+000
-4.0149093E-001	-2.077635234661319E+000
-3.5149482E-001	-1.156982940234496E+000
-4.1137946E-001	-2.015562554423729E+000
-3.6144826E-001	-1.171586750598436E+000
-4.2145121E-001	-1.950753075353216E+000
-3.7144363E-001	-1.169911902942015E+000
-4.3138173E-001	-1.882132243574336E+000
-3.8149253E-001	-1.165477253078075E+000
-4.4141915E-001	-1.818596760878403E+000
-3.9144590E-001	-1.152262817607837E+000
-4.5138401E-001	-1.752677024080512E+000
-4.0143749E-001	-1.139554472451801E+000
-4.6134886E-001	-1.695542986473342E+000
-4.1145581E-001	-1.119748928573694E+000
-4.7153899E-001	-1.636136655057415E+000
-4.2150468E-001	-1.100484588172998E+000
-4.8148096E-001	-1.589248057161824E+000
-4.3147716E-001	-1.080269138464768E+000
-4.9143434E-001	-1.539489341585828E+000
-4.4142294E-001	-1.059692720348917E+000
-5.0138777E-001	-1.502606793735808E+000
-4.5143747E-001	-1.039852775884480E+000
-5.1139081E-001	-1.463091496671184E+000
-4.6145195E-001	-1.018958792257845E+000
-5.2136713E-001	-1.434531533316282E+000
-4.7139010E-001	-1.002064188544672E+000
-5.3134727E-001	-1.403536219275400E+000
-4.8142749E-001	-9.834200465277352E-001
-5.4141903E-001	-1.381844241967364E+000
-4.9139997E-001	-9.704691332377759E-001
-5.5141824E-001	-1.356996178627014E+000
-5.0144124E-001	-9.547283113672496E-001
-5.6139076E-001	-1.340113169691536E+000
-5.1144040E-001	-9.454683239540369E-001
-5.7137084E-001	-1.320014436593219E+000
-5.2135187E-001	-9.325830802488868E-001
-5.8145028E-001	-1.306114595927550E+000
-5.3136635E-001	-9.275423455774128E-001
-5.9146100E-001	-1.292310375845835E+000
-5.4149920E-001	-9.161563870612177E-001
-6.0149455E-001	-1.282460654719493E+000
-5.5140299E-001	-9.123878130752061E-001
-6.1143267E-001	-1.271421516879222E+000
-5.6144041E-001	-9.030471182941078E-001
-6.2150830E-001	-1.265515405140569E+000
-5.7131362E-001	-9.015976465150217E-001
-6.3146931E-001	-1.260766953564762E+000
-5.8135867E-001	-8.938312778312181E-001
-6.4140743E-001	-1.256815528601743E+000
-5.9152204E-001	-8.946605291259424E-001
-6.5150976E-001	-1.256520620892557E+000
-6.0151362E-001	-8.897627270623545E-001
-6.6147840E-001	-1.256841678297922E+000
-6.1150140E-001	-8.928170565808760E-001
-6.7140895E-001	-1.262837853324548E+000
-6.2151587E-001	-8.899863549832556E-001
-6.8146926E-001	-1.266077622938692E+000
-6.3154566E-001	-8.946244991227488E-001
-6.9151044E-001	-1.276236453752841E+000
-6.4150673E-001	-8.951073543409294E-001
-7.0142192E-001	-1.283371011862595E+000
-6.5149063E-001	-9.021169663815023E-001
-7.1143639E-001	-1.298862904645084E+000
-6.6151661E-001	-9.061641391743436E-001
-7.2137451E-001	-1.311851939458528E+000
-6.7138600E-001	-9.174633488226478E-001
-7.3153406E-001	-1.334012278010337E+000
-6.8147689E-001	-9.259619351183446E-001
-7.4141496E-001	-1.351405996954844E+000
-6.9141883E-001	-9.388132142216974E-001
-7.5140655E-001	-1.380335076471393E+000
-7.0147151E-001	-9.515186260255568E-001
-7.6139426E-001	-1.404912695456087E+000
-7.1147835E-001	-9.680037377925403E-001
-7.7149278E-001	-1.440191662713385E+000
-7.2142798E-001	-9.852558113216023E-001
-7.8146529E-001	-1.472029621681472E+000
-7.3145390E-001	-1.005034356974486E+000
-7.9144925E-001	-1.515640952613916E+000
-7.4146074E-001	-1.028531290172191E+000
-8.0137211E-001	-1.556780121299658E+000
-7.5146377E-001	-1.052157664566899E+000
-8.1140190E-001	-1.609542947136955E+000
-7.6150507E-001	-1.082685587111484E+000
-8.2135534E-001	-1.662377502141375E+000
-7.7145082E-001	-1.114190061440631E+000
-8.3144236E-001	-1.728204046742306E+000
-7.8146154E-001	-1.152795054939356E+000
-8.4141105E-001	-1.793034877669946E+000
-7.9150659E-001	-1.191318911113097E+000
-8.5140264E-001	-1.870745382951888E+000
-8.0140269E-001	-1.239914505669240E+000
-8.6148965E-001	-1.948200097244778E+000
-8.1148589E-001	-1.282752904999125E+000
-8.7143922E-001	-2.035399956649609E+000
-8.2140875E-001	-1.334705024622801E+000
-8.8143843E-001	-2.120800216546222E+000
-8.3138508E-001	-1.376616329289554E+000
-8.9152169E-001	-2.208745929632295E+000
-8.4143776E-001	-1.426173725824679E+000
-9.0143311E-001	-2.292668506000823E+000
-8.5141408E-001	-1.463176044185513E+000
-9.1145909E-001	-2.368645440326648E+000
-8.6139804E-001	-1.503031339538232E+000
-9.2142010E-001	-2.440877892997827E+000
-8.7135524E-001	-1.533253613482707E+000
-9.3142694E-001	-2.482081003403401E+000
-8.8144612E-001	-1.558858805827882E+000
-9.4146436E-001	-2.512878018818547E+000
-8.9152932E-001	-1.575032273035376E+000
-9.5140636E-001	-2.517064134726365E+000
-9.0141785E-001	-1.590044258685594E+000
-9.6137118E-001	-2.504969042338686E+000
-9.1130632E-001	-1.595050254564612E+000
-9.7130936E-001	-2.466584612814231E+000
-9.2135519E-001	-1.595966623070538E+000
-9.8142689E-001	-2.420143424794919E+000
-9.3145752E-001	-1.587541022997229E+000
-9.9134600E-001	-2.355959018964448E+000
-9.4144529E-001	-1.576145204265469E+000
-1.0013795E+000	-2.294061893827460E+000
-9.5145595E-001	-1.559149025531297E+000
-1.0115086E+000	-2.224616991000230E+000
-9.6139032E-001	-1.538522757840965E+000
-1.0214735E+000	-2.163116005029572E+000
-9.7135514E-001	-1.516850566596128E+000
-1.0315604E+000	-2.097870507936804E+000
-9.8140019E-001	-1.492761782046117E+000
-1.0414834E+000	-2.045351023084662E+000
-9.9141473E-001	-1.470871530222091E+000
-1.0514749E+000	-1.991416644514281E+000
-1.0013909E+000	-1.446894320209378E+000
-1.0615009E+000	-1.947833970691384E+000
-1.0114245E+000	-1.427165252439092E+000
-1.0714810E+000	-1.904309233922639E+000
-1.0215384E+000	-1.403148637728745E+000
-1.0814612E+000	-1.871756249599244E+000
-1.0315415E+000	-1.387019790960164E+000
-1.0914985E+000	-1.841336074839820E+000
-1.0415139E+000	-1.367618104045311E+000
-1.1015513E+000	-1.818224604210158E+000
-1.0514864E+000	-1.355447972758434E+000
-1.1115009E+000	-1.796624061766635E+000
-1.0614588E+000	-1.338206979665864E+000
-1.1214352E+000	-1.782238239652655E+000
-1.0715460E+000	-1.331678603472335E+000
-1.1314421E+000	-1.765638579143567E+000
-1.0815413E+000	-1.315378862820317E+000
-1.1414183E+000	-1.752885192967533E+000
-1.0915062E+000	-1.308530703019561E+000
-1.1514291E+000	-1.742788194270616E+000
-1.1014634E+000	-1.295809425664753E+000
-1.1615199E+000	-1.733738009849297E+000
-1.1114130E+000	-1.293201888545177E+000
-1.1713932E+000	-1.735278116183335E+000
-1.1214886E+000	-1.282315986879757E+000
-1.1814382E+000	-1.722291117303827E+000
-1.1314840E+000	-1.278053780620018E+000
-1.1914183E+000	-1.715027038970696E+000
-1.1415176E+000	-1.268576622009277E+000
-1.2014138E+000	-1.710205616575955E+000
-1.1514099E+000	-1.266524922981692E+000
-1.2113557E+000	-1.719778486851901E+000
-1.1613747E+000	-1.267225826724193E+000
-1.2214351E+000	-1.709657895431090E+000
-1.1713969E+000	-1.253256875477483E+000